wavelength,flux
1448.26,0.01566491326025969
1448.76,0.015170386847395278
1449.28,0.015363569329407115
1449.78,0.016284983280051412
1450.29,0.017696451836668566
1450.81,0.019225724854454545
1451.3,0.02058389550878181
1451.81,0.02136782723453454
1452.33,0.021173236274359502
1452.83,0.02038314044657007
1453.34,0.019222565135061903
1453.86,0.017880089108363754
1454.35,0.016717351442480526
1454.86,0.01574268400516112
1455.38,0.014790463375861115
1455.89,0.013820574877166078
1456.39,0.012724878320826602
1456.89,0.011355430218076046
1457.41,0.010070577810939521
1457.91,0.009097044407535457
1458.42,0.008629839270374187
1458.94,0.009101710965574585
1459.43,0.010351817070233454
1459.93,0.01183534237863903
1460.45,0.013230304298324846
1460.95,0.014104817383204214
1461.46,0.013932162858752142
1461.98,0.013175119655124768
1462.47,0.012141237351690115
1462.98,0.011057099969301737
1463.5,0.010341736816952093
1464.0,0.010054186594241182
1464.51,0.009931055780092736
1465.03,0.009870064833607153
1465.53,0.009754775128894718
1466.03,0.009422426711767101
1466.54,0.008949357695939951
1467.06,0.00838501428809683
1467.56,0.007748366813029318
1468.06,0.007048322840892365
1468.58,0.0063295656913874765
1469.08,0.005674691853186399
1469.59,0.005140922709290264
1470.11,0.004818480484050049
1470.61,0.004851310203897621
1471.11,0.005054150197895272
1471.63,0.005279335081205868
1472.13,0.005411366304802779
1472.64,0.0051821251318817044
1473.16,0.004574696813115667
1473.64,0.003994905082858375
1474.15,0.003648449128406514
1474.67,0.003804246381418025
1475.18,0.004930925557324692
1475.68,0.006535799821692024
1476.19,0.008164205938954885
1476.7,0.00949598861919276
1477.2,0.009993605262719026
1477.71,0.009431222289047785
1478.23,0.008340291072848291
1478.73,0.0069857604601724545
1479.23,0.005631836598306837
1479.75,0.004677646989560453
1480.25,0.0040806224790576814
1480.76,0.0037721402195758373
1481.28,0.003751150997328925
1481.78,0.004042171847514204
1482.28,0.0046101335187654115
1482.8,0.005250774203595231
1483.3,0.005824033833796519
1483.81,0.00616110833504875
1484.33,0.005958064100608943
1484.82,0.005407552980451668
1485.33,0.004758485732231732
1485.84,0.004167278868400685
1486.36,0.0038967851079487643
1486.86,0.004137107943841771
1487.37,0.004578303437002041
1487.88,0.005065190672433434
1488.37,0.005449000083438362
1488.88,0.005433053299448149
1489.4,0.005141565684034036
1489.9,0.004787850828695197
1490.4,0.004485453045676208
1490.92,0.00442550686402489
1491.42,0.004777235358851952
1491.93,0.005261606778207682
1492.45,0.005723394479581349
1492.95,0.006025753526038402
1493.45,0.0059033273015871865
1493.97,0.00543246105105451
1494.47,0.004816841447581692
1494.98,0.0041677771405828805
1495.5,0.003634371470689802
1496.0,0.0033773886890829724
1496.5,0.003291609103872473
1497.01,0.003324981044776556
1497.53,0.00344455856104204
1498.03,0.003584388205075344
1498.54,0.0037269532818249786
1499.05,0.003882516716235851
1499.55,0.004039864922959942
1500.06,0.004195396864912348
1500.58,0.0043546488992890564
1501.08,0.004458485652929846
1501.58,0.004466828085634201
1502.1,0.004345663778213111
1502.59,0.004016418054417818
1503.1,0.0035069723558632474
1503.62,0.002943428378109159
1504.12,0.0024027228431686377
1504.62,0.0019803912746109912
1505.14,0.0018042438646678025
1505.65,0.0017918251478259532
1506.15,0.0018806100493553306
1506.66,0.002028707096606881
1507.17,0.002156276823643326
1507.67,0.0022349209509192874
1508.18,0.002319168938688815
1508.7,0.002424127574560569
1509.2,0.002572364247420639
1509.71,0.0028154525600921536
1510.22,0.003081319759985579
1510.72,0.0033071816742283456
1511.23,0.0034496796937828153
1511.75,0.003426547189601722
1512.25,0.0032136875403529146
1512.75,0.0029330805152131766
1513.27,0.00265322896448726
1513.77,0.0024428546125827635
1514.28,0.0024027487045932684
1514.8,0.002510594241379076
1515.31,0.0027298816391038106
1515.8,0.0030417318030001145
1516.31,0.003447780968291749
1516.83,0.003923987796822685
1517.32,0.004339871583333286
1517.83,0.004611706652197251
1518.34,0.0046428211074559245
1518.84,0.004241213182425529
1519.35,0.0035496396271331157
1519.87,0.0027725300258146326
1520.37,0.0020439138860081215
1520.88,0.0015642915061715652
1521.39,0.0015084259127155421
1521.89,0.0016786704501506003
1522.4,0.0019737955253226747
1522.92,0.002306256436441093
1523.42,0.0025023707540381026
1523.92,0.002586802794850221
1524.44,0.0026545362049919603
1524.95,0.0027412185175658406
1525.45,0.0029138979859519992
1525.96,0.0032512450633245408
1526.48,0.0036113846390762277
1526.97,0.003907786558136697
1527.48,0.004068237823249592
1528.0,0.003939430732176826
1528.5,0.003561666694759579
1529.01,0.0031022072410532057
1529.52,0.002654632097729124
1530.02,0.0023426781466681355
1530.53,0.002325390204376536
1531.05,0.002474754264483215
1531.55,0.0027029883305619315
1532.05,0.0029489505338565684
1532.56,0.0030993647948988436
1533.06,0.0031256562602326133
1533.57,0.0031035057688219335
1534.09,0.0030595828524369027
1534.6,0.0030267330440812566
1535.09,0.003062359889163091
1535.6,0.0031194618872609848
1536.12,0.0031606606560804448
1536.62,0.003163553894113858
1537.13,0.003083283887947263
1537.65,0.0029085663874453944
1538.14,0.0027021883413761946
1538.65,0.0024979651242424132
1539.17,0.002331063221950805
1539.67,0.0022555043784650655
1540.18,0.0022527642209216477
1540.69,0.002299446506032174
1541.19,0.0023830874872092845
1541.7,0.0024918023160173694
1542.22,0.0026103365996478787
1542.72,0.0027145114657926915
1543.23,0.0027871125801884346
1543.74,0.0028039722972161714
1544.25,0.002709516208657076
1544.75,0.0025553182742792495
1545.26,0.002410123724584492
1545.78,0.002317561500734179
1546.26,0.002356022117033484
1546.77,0.0025907825939942746
1547.29,0.002885882074990143
1547.79,0.0031616990602780907
1548.3,0.003345474027142807
1548.82,0.003297237845321045
1549.31,0.003054076449124028
1549.82,0.00272586496569645
1550.34,0.0023724191446663438
1550.84,0.002073689878938473
1551.35,0.0019211459925673558
1551.86,0.0018563799019303202
1552.36,0.001848719592528787
1552.87,0.001879962386116988
1553.39,0.0019137880326314607
1553.89,0.0019402138578772836
1554.4,0.0019709156266165856
1554.9,0.0020049024903184428
1555.42,0.0020409332741185586
1555.92,0.002080474617982753
1556.43,0.0021170410165230855
1556.95,0.0021463476089211746
1557.44,0.00216549919220742
1557.95,0.002167023371898168
1558.47,0.002152722024029581
1558.97,0.0021386170284832676
1559.48,0.0021342156851223136
1560.0,0.002150355879444112
1560.49,0.002203300932193476
1560.99,0.0022823332885361426
1561.51,0.002376119381666294
1562.01,0.002476768306932623
1562.52,0.002575738794401526
1563.03,0.0026640377313572323
1563.53,0.0027328463978852427
1564.04,0.002774569995904357
1564.55,0.0027812127633512333
1565.07,0.002741490107208779
1565.57,0.002662377303473025
1566.07,0.002554790372514428
1566.59,0.002427518223725091
1567.09,0.0022870744160446415
1567.6,0.0021421201290478357
1568.12,0.0020159553545352022
1568.61,0.001925494720890364
1569.12,0.0018872268838531685
1569.64,0.0019278008552620434
1570.14,0.002036894156787712
1570.65,0.002189498695756274
1571.17,0.0023678156440200865
1571.66,0.002559587830990886
1572.17,0.002753748839050175
1572.69,0.0029041919083416367
1573.19,0.0029796473405702827
1573.7,0.002947885056918526
1574.2,0.0027251697344631556
1574.72,0.0023539049211624957
1575.21,0.0019670193768918797
1575.72,0.001642571272917666
1576.24,0.001491464638404106
1576.74,0.0016698554533079806
1577.24,0.0020102462294281417
1577.76,0.002387657870191463
1578.26,0.002709021102652715
1578.77,0.0027881122298604346
1579.29,0.0025904024329113547
1579.78,0.002322194085991321
1580.29,0.002080559559771541
1580.81,0.0019852089084979197
1581.31,0.0022477453439792893
1581.82,0.002693167221794391
1582.34,0.0031539081087276176
1582.83,0.003522246167910599
1583.34,0.003610965190587552
1583.85,0.0033200533457910927
1584.37,0.0028638131442198156
1584.87,0.002349500984997341
1585.37,0.001882648137520537
1585.89,0.0016472783495426171
1586.39,0.0015945354951244757
1586.9,0.0016396483825974113
1587.42,0.0017444497372448408
1587.92,0.001844234361127602
1588.42,0.001877348016601782
1588.94,0.0019063720323523974
1589.44,0.001955441021529497
1589.94,0.0020430944307077885
1590.46,0.0022275564900475463
1590.95,0.0024687986469801066
1591.46,0.0026888478382713302
1591.98,0.002843175834248422
1592.48,0.002863741566361334
1592.99,0.002670876887187306
1593.5,0.002379015597082245
1594.01,0.0020650746180216235
1594.51,0.001791555385715305
1595.02,0.0016730539999884218
1595.54,0.001718379068564195
1596.04,0.0018374829872748006
1596.54,0.0019876345610680686
1597.06,0.002119547038115025
1597.56,0.002163660509287792
1598.07,0.0021437851930833658
1598.59,0.0020769557328226868
1599.09,0.0019687709245364915
1599.59,0.0018280933783968046
1600.11,0.0016664392802553112
1600.61,0.0014969322848185562
1601.12,0.001333068497525077
1601.64,0.0011893822399790803
1602.13,0.001082560873648951
1602.64,0.0010158640354616423
1603.15,0.000989621031974639
1603.67,0.0010048447224797852
1604.17,0.0010702213540646193
1604.67,0.0011860612011909987
1605.18,0.001310887541809828
1605.68,0.0014188887767808843
1606.19,0.0014810803120870394
1606.71,0.0014375327738701997
1607.21,0.0013226533908514706
1607.71,0.0011944510226007585
1608.23,0.0010869926741876007
1608.73,0.001058697865606775
1609.24,0.0011700495388822748
1609.76,0.0013269157673986044
1610.26,0.0014746524436037634
1610.76,0.001566155291094274
1611.28,0.0014957806742001405
1611.78,0.0012917928297578073
1612.29,0.00106776616097204
1612.8,0.0008841173650217248
1613.31,0.0008229449310364525
1613.81,0.0009957465489201759
1614.32,0.001294233788956984
1614.84,0.0016386199354843174
1615.34,0.0019717535394485285
1615.85,0.0021966727417510076
1616.36,0.0022786841748794412
1616.86,0.0022816634369426272
1617.37,0.00223012611030677
1617.89,0.0021478371983664176
1618.39,0.0020719015374009034
1618.88,0.0020041596664362197
1619.4,0.0019461684784533063
1619.9,0.0019058120714204848
1620.41,0.0019014300337571932
1620.93,0.001939058137203479
1621.43,0.001979417322196706
1621.93,0.002002154771950091
1622.44,0.001979710424474819
1622.95,0.0018428097423027505
1623.46,0.0016530246569780352
1623.97,0.0014921705388410895
1624.48,0.0014092929564388373
1624.98,0.0014980732638721797
1625.49,0.0018421276507528785
1626.01,0.0022561456754983515
1626.51,0.0026299212763471005
1627.02,0.0028628315758296038
1627.53,0.002747461173166849
1628.03,0.0023412835305534866
1628.54,0.0018404494050066863
1629.06,0.0013516855314539787
1629.56,0.00101860272729204
1630.06,0.0010236446961487758
1630.58,0.0012164014165291085
1631.08,0.0014956179516096265
1631.59,0.0017928110466960954
1632.11,0.0019927263320844327
1632.61,0.002051452242815797
1633.11,0.002022538011464373
1633.61,0.0019206379420833477
1634.13,0.0017535385796637836
1634.63,0.0015286254573845157
1635.14,0.0012889830698642661
1635.65,0.0010755629836462213
1636.15,0.000924655217589472
1636.66,0.0008964841577277474
1637.18,0.0010192331371802852
1637.68,0.0012185403880671168
1638.19,0.0014533547080833589
1638.7,0.0016827764356870285
1639.2,0.0018417061963564238
1639.71,0.0019351486364934764
1640.23,0.0019805238288197195
1640.73,0.0019821458399596277
1641.23,0.0019449625118528949
1641.75,0.0018770762348582805
1642.25,0.001793987733694129
1642.76,0.0017095507579727688
1643.27,0.0016389231983079502
1643.79,0.0016071784251650595
1644.28,0.0016118248509984724
1644.79,0.0016363271492236492
1645.31,0.0016718290456224985
1645.81,0.0017086872973123958
1646.32,0.0017357747001455056
1646.84,0.0017492977564442273
1647.33,0.001745709551264904
1647.83,0.001720704301503192
1648.35,0.001663438870401197
1648.85,0.0015792600318573174
1649.36,0.001493298865153856
1649.87,0.0014223770225183794
1650.37,0.001382073983001307
1650.88,0.001388345472553663
1651.4,0.001449855027979204
1651.9,0.0015712517045472722
1652.41,0.0017566590466773409
1652.91,0.0020298461445081408
1653.43,0.0023881961095859445
1653.93,0.002744328682811481
1654.44,0.003045669992932128
1654.96,0.003234253967366518
1655.45,0.0032028674332425446
1655.96,0.0030145947261474753
1656.48,0.0027616984661901767
1656.98,0.0025016963751460708
1657.49,0.0023147177737103284
1658.01,0.0022763800193053344
1658.5,0.0023328120508136403
1659.01,0.0024582971639121273
1659.53,0.0026368080251347272
1660.03,0.0028501386742585833
1660.54,0.0030682847697159205
1661.05,0.003256445175069114
1661.55,0.0033853666571387934
1662.06,0.0034138145654789903
1662.56,0.0032916268561005123
1663.08,0.0030767888836157643
1663.58,0.002812569227405563
1664.08,0.0025337796680732307
1664.6,0.0023012340668381636
1665.1,0.0021349136548546588
1665.61,0.0019965862488996477
1666.13,0.0018744062218209712
1666.62,0.00175278755180669
1667.13,0.0015986395478059087
1667.65,0.0014444019693090763
1668.15,0.0013197587947047272
1668.66,0.0012427431566378172
1669.18,0.001242138089430117
1669.67,0.0013333745620491982
1670.18,0.0014818097771477968
1670.7,0.0016668682371654693
1671.2,0.001870764711470569
1671.71,0.0020741079196886954
1672.21,0.0022568480989255944
1672.73,0.0024007037709706984
1673.23,0.002489933294540342
1673.74,0.0024976005842893756
1674.26,0.002400132986231076
1674.76,0.0022532503673836505
1675.26,0.0020932664352023267
1675.78,0.0019538770282403
1676.28,0.0018991338084396903
1676.79,0.0019233180779958624
1677.3,0.0019772756669558474
1677.79,0.00203738792561161
1678.3,0.0020716095574834044
1678.82,0.0020349299766133804
1679.32,0.0019640862247667893
1679.83,0.001884894034813943
1680.35,0.0018141283541932146
1680.84,0.0017831630411426142
1681.35,0.0018023370381108337
1681.86,0.001844871390668893
1682.37,0.0019001163534013796
1682.88,0.0019546890136039924
1683.38,0.001981381231101207
1683.9,0.0020018082603079227
1684.4,0.002037109574814865
1684.91,0.002099231037774162
1685.43,0.0022143980061805563
1685.93,0.002396476630817077
1686.43,0.002592334423421074
1686.95,0.0027712750978711943
1687.45,0.0029041962449243737
1687.96,0.002940943371183365
1688.48,0.0028945304757087846
1688.97,0.0027972545744822763
1689.48,0.0026677942968986058
1690.0,0.0025264090198843857
1690.5,0.002395284072877013
1691.01,0.0022903762279002735
1691.51,0.002226639913896848
1692.01,0.00221995983955317
1692.52,0.0022982290991797267
1693.03,0.0024544461653437212
1693.55,0.0026528994993447606
1694.05,0.0028701095173034367
1694.55,0.003080971330262715
1695.07,0.00325601116822821
1695.57,0.0033863447022144245
1696.08,0.003464002642350432
1696.6,0.0034793839775370825
1697.1,0.0034129960280312867
1697.6,0.0032655932006051
1698.12,0.003081176637073089
1698.62,0.0028873811433017295
1699.13,0.0027156774941927606
1699.65,0.0026177695606509014
1700.14,0.002574302211322287
1700.65,0.0025592689805175963
1701.16,0.0025591552515010314
1701.67,0.002545831042375463
1702.18,0.0024955916657259584
1702.69,0.0024501972119468723
1703.2,0.0024284199002287863
1703.7,0.0024494901722407767
1704.21,0.00257138577980518
1704.73,0.0027522616107812127
1705.23,0.0029120635715318356
1705.73,0.003005618327079503
1706.24,0.002959121634296733
1706.74,0.002679719580893127
1707.25,0.0023110013134820897
1707.77,0.001953115995059887
1708.27,0.001677829715976793
1708.77,0.0016491628208799441
1709.29,0.0018883054152006261
1709.79,0.0022369695660577216
1710.3,0.002638186385755226
1710.81,0.003020953774520187
1711.31,0.003243726010728056
1711.82,0.003370788323075601
1712.33,0.003435656690125905
1712.85,0.003452190863038304
1713.35,0.0034534330816118034
1713.86,0.003466095576325971
1714.37,0.0034585345385815614
1714.87,0.003427984662648977
1715.38,0.0033723769256342752
1715.9,0.003281796392501772
1716.4,0.003166222803782243
1716.9,0.0030378267192884586
1717.42,0.002905835519268265
1717.92,0.002775146082464619
1718.43,0.002646154030221015
1718.95,0.0025556482249501616
1719.45,0.002524133227705568
1719.95,0.002566937624740992
1720.45,0.0027369555433869614
1720.96,0.003010066505414734
1721.47,0.003319308536459638
1721.98,0.0036283383323905153
1722.49,0.00389363522346939
1722.99,0.004048387044735546
1723.5,0.004119607429818985
1724.02,0.004115445812424171
1724.52,0.00404178372209501
1725.03,0.0039038904367143636
1725.54,0.003716291190012411
1726.04,0.0035092230777239355
1726.55,0.003306837551605026
1727.07,0.0031333594409913342
1727.57,0.0030138356827249654
1728.07,0.0029638376546003357
1728.59,0.002994975851013348
1729.09,0.0031138794050703028
1729.6,0.0033479658820667318
1730.11,0.003719000522540715
1730.62,0.0041093758911902156
1731.12,0.004459915628454662
1731.63,0.004716059204593579
1732.15,0.004732603245727475
1732.65,0.0045648705486456085
1733.16,0.0043159708582415765
1733.67,0.004036721107423123
1734.17,0.0038003741584127977
1734.68,0.003718285243093769
1735.19,0.003705225255758012
1735.69,0.0037350902782976804
1736.2,0.0037892321239283095
1736.71,0.0038173269909765116
1737.21,0.0038115863284516106
1737.72,0.003809725622075126
1738.24,0.0038195927218869297
1738.74,0.0038529571457721406
1739.24,0.003944674808500217
1739.75,0.004059208163157646
1740.26,0.004174605812361765
1740.77,0.00427773994872928
1741.28,0.00433039828004697
1741.79,0.004312930916460535
1742.29,0.004301185793228772
1742.8,0.004323707161372694
1743.32,0.004409018271898233
1743.82,0.004660490167953875
1744.33,0.004999055210754247
1744.84,0.005338687851654917
1745.34,0.005630614996433758
1745.85,0.00579617197418425
1746.37,0.005736678308093696
1746.87,0.005584147102095216
1747.38,0.00539011777571106
1747.89,0.0052009274476032125
1748.39,0.005110361480129969
1748.9,0.005126473734483912
1749.4,0.005211376737038223
1749.91,0.005357140445250785
1750.41,0.005556396514399275
1750.92,0.0058207100869690186
1751.43,0.006077751617129634
1751.94,0.006278966028658986
1752.45,0.0063882394592394585
1752.97,0.006291854566331592
1753.46,0.005975439647433179
1753.97,0.00563590126723886
1754.49,0.005354290632712597
1754.99,0.005222478641420163
1755.5,0.005511885882396527
1756.01,0.005999937765975911
1756.51,0.006505077419986595
1757.02,0.00691914963775234
1757.54,0.007034289273555866
1758.04,0.0066552805054710005
1758.55,0.0061270951149445625
1759.05,0.005573278132329868
1759.56,0.005110790101321785
1760.07,0.005065620801020909
1760.58,0.0053284450861332405
1761.09,0.005690031908437432
1761.59,0.006061420311744719
1762.1,0.006302696861466786
1762.62,0.006180593747712545
1763.12,0.0059402250384200436
1763.63,0.005678619541974921
1764.14,0.0054673541889888305
1764.63,0.005504285719338968
1765.14,0.005795232038158082
1765.66,0.0061364322012543845
1766.16,0.006454132743064549
1766.67,0.006657403552670526
1767.18,0.006547890910556329
1767.68,0.006266862794482043
1768.19,0.005902006424902987
1768.7,0.005509806419281016
1769.21,0.00518203568005435
1769.72,0.004991089069251996
1770.22,0.004889002729583875
1770.73,0.004879036631394721
1771.24,0.004960152481726485
1771.75,0.005144227921726702
1772.27,0.005397902050580466
1772.76,0.00568378300015435
1773.27,0.00597316544523208
1773.79,0.00622182249106138
1774.29,0.006372868053682265
1774.8,0.006493917934896325
1775.32,0.006608876942792064
1775.81,0.006737607848244102
1776.32,0.0069344671194045415
1776.84,0.007190832932473092
1777.34,0.007461686844444216
1777.85,0.007726924907338018
1778.36,0.007967592458414151
1778.85,0.008176471305457763
1779.36,0.00830751392346863
1779.87,0.008330453029830523
1780.38,0.008226574289269895
1780.89,0.007909256349040309
1781.39,0.007378085748860037
1781.91,0.00683707582403557
1782.41,0.006379980506809967
1782.92,0.006107869470780349
1783.44,0.006291892189645169
1783.93,0.006737357363472831
1784.44,0.007275223989784064
1784.96,0.007804480329416011
1785.46,0.008149792287965604
1785.97,0.008133352025625986
1786.49,0.007987453934025227
1786.98,0.007782951591671889
1787.49,0.0075874731418454685
1788.01,0.007569154907579622
1788.51,0.007699717589888814
1789.02,0.007895667953590944
1789.52,0.00812990231326296
1790.03,0.00836475437568765
1790.54,0.008546737289045698
1791.05,0.008687737772517712
1791.57,0.008782345132572268
1792.07,0.00882545900480446
1792.57,0.008780806415600046
1793.08,0.008663219619872658
1793.58,0.008550654099078207
1794.09,0.008480015824828643
