wavelength,flux
1448.26,0.14759840546576045
1448.76,0.14282877860222387
1449.28,0.1445320154058669
1449.78,0.153082762482901
1450.29,0.16622118724340096
1450.81,0.18044228880395025
1451.3,0.19304531523126817
1451.81,0.20024226460158026
1452.33,0.19826249753536562
1452.83,0.19072004286756505
1453.34,0.17972262112886495
1453.86,0.16704040948141094
1454.35,0.15606307969497415
1454.86,0.14685207472877893
1455.38,0.13786246502652466
1455.89,0.128724324714665
1456.39,0.11843107225462342
1456.89,0.10560729145680338
1457.41,0.09358601295535761
1457.91,0.08447666166208369
1458.42,0.08007803405697894
1458.94,0.08439222601381728
1459.43,0.09591456774983027
1459.93,0.10958012688259114
1460.45,0.12240296191986748
1460.95,0.13039895529668558
1461.46,0.12870760666286735
1461.98,0.12162246191693164
1462.47,0.11199929971511999
1462.98,0.10192365238658727
1463.5,0.0952583753120355
1464.0,0.09254347643144482
1464.51,0.09134358019461049
1465.03,0.0907153868754053
1465.53,0.08959209518824127
1466.03,0.08647835621884105
1466.54,0.08207735732337468
1467.06,0.07684521016302934
1467.56,0.07096066445218757
1468.06,0.0645042805962506
1468.58,0.057884261968892924
1469.08,0.05185917768512588
1469.59,0.04694786687787442
1470.11,0.0439714795017761
1470.61,0.044240397584323875
1471.11,0.04605829459078515
1471.63,0.04807590115836165
1472.13,0.04924434433280902
1472.64,0.04712521181309254
1473.16,0.04157177281377682
1473.64,0.0362792233403319
1474.15,0.03310991249349476
1474.67,0.03449939269979239
1475.18,0.04468594982402238
1475.68,0.059189903938458494
1476.19,0.07388632290154448
1476.7,0.08588004044621543
1477.2,0.09031975734451893
1477.71,0.08517888889884356
1478.23,0.07527375142597104
1478.73,0.06300669935171736
1479.23,0.050761503680371495
1479.75,0.04213203854102533
1480.25,0.03673028314334457
1480.76,0.03393075283624705
1481.28,0.03371887246868725
1481.78,0.036311002765827084
1482.28,0.04138592274227806
1482.8,0.04710505513428303
1483.3,0.05221378184318344
1483.81,0.055199132111277825
1484.33,0.05334402906925542
1484.82,0.04838449794286336
1485.33,0.04254891693983205
1485.84,0.037238081617266154
1486.36,0.03479776380691691
1486.86,0.03692017247790985
1487.37,0.04083086444292607
1487.88,0.045143750970983124
1488.37,0.04853423968848929
1488.88,0.04836092608655665
1489.4,0.04573624215884473
1489.9,0.04256295975615788
1490.4,0.03984963223126563
1490.92,0.03929140878119776
1491.42,0.04238765440220988
1491.93,0.046655683207795055
1492.45,0.050717583989067026
1492.95,0.053363763596649794
1493.45,0.05224717678076322
1493.97,0.04804889493766681
1494.47,0.04257761843593503
1494.98,0.0368172258149297
1495.5,0.03208476123211072
1496.0,0.029797840764845755
1496.5,0.0290233083979907
1497.01,0.02929935917285821
1497.53,0.03033389786136631
1498.03,0.031546167414251675
1498.54,0.03278067111078634
1499.05,0.03412795230980658
1499.55,0.03548972534004355
1500.06,0.03683351682481541
1500.58,0.038207894917894406
1501.08,0.03909563016122564
1501.58,0.039145478488917515
1502.1,0.03806013789043633
1502.59,0.03515613458910783
1503.1,0.03067841302575844
1503.62,0.025732851572307806
1504.12,0.02099340580062904
1504.62,0.01729321122784104
1505.14,0.015745475823983075
1505.65,0.015627799686545502
1506.15,0.016392618157183767
1506.66,0.01767306518874792
1507.17,0.018773301873445777
1507.67,0.01944677532395759
1508.18,0.020167995255871457
1508.7,0.02106815001797641
1509.2,0.022343674577727866
1509.71,0.024440901300360952
1510.22,0.02673334433590926
1510.72,0.028676601150326664
1511.23,0.029894906400727395
1511.75,0.029676978696949564
1512.25,0.027817725418943402
1512.75,0.02537450445200974
1513.27,0.02294007384138356
1513.77,0.021109336259961583
1514.28,0.02075094866357239
1514.8,0.02166978421744746
1515.31,0.02354918119075911
1515.8,0.026225096597306707
1516.31,0.029709204812951303
1516.83,0.033793256286901545
1517.32,0.03735470168432967
1517.83,0.03967227773843728
1518.34,0.0399176632450745
1518.84,0.036444863076089254
1519.35,0.03048522664715683
1519.87,0.02379777122595452
1520.37,0.01753426340331849
1520.88,0.013412305629876884
1521.39,0.01292620931630002
1521.89,0.014377367478517658
1522.4,0.016895800219161535
1522.92,0.019730716867489707
1523.42,0.021397127649788454
1523.92,0.022107329823991332
1524.44,0.022673687916040873
1524.95,0.023401459173958503
1525.45,0.024862487868134987
1525.96,0.027725981784174056
1526.48,0.03078038327955924
1526.97,0.033289587461070046
1527.48,0.03463799319524449
1528.0,0.03352314562039901
1528.5,0.030292778885721374
1529.01,0.02637104162595951
1529.52,0.022554440723887053
1530.02,0.019893750426129644
1530.53,0.019736599143038845
1531.05,0.020993128580851374
1531.55,0.022917505736007517
1532.05,0.024990177309803206
1532.56,0.026251213597601956
1533.06,0.02646048150201844
1533.57,0.026259418913516037
1534.09,0.02587420553685079
1534.6,0.025583276058130006
1535.09,0.025871689921839858
1535.6,0.02634066012449913
1536.12,0.026674697838757262
1536.62,0.026685834680787494
1537.13,0.02599556418184311
1537.65,0.024509880477496294
1538.14,0.022759764495823457
1538.65,0.021029088944089745
1539.17,0.01961401075062315
1539.67,0.018968954920896605
1540.18,0.01893647642166094
1540.69,0.019319284114752967
1541.19,0.020012290086598876
1541.7,0.02091490193547914
1542.22,0.02189881413869505
1542.72,0.022761797970319863
1543.23,0.023359125815414262
1543.74,0.023488947837597383
1544.25,0.022686627918210578
1544.75,0.021385344824317618
1545.26,0.020160443848007224
1545.78,0.019376618128774267
1546.26,0.019689243625472443
1546.77,0.02164072670533917
1547.29,0.02409390246034753
1547.79,0.026384296713078702
1548.3,0.027904585460550756
1548.82,0.02748891747004434
1549.31,0.025450094811951773
1549.82,0.02270431798032133
1550.34,0.01975089244200055
1550.84,0.01725595033352267
1551.35,0.015979079995627584
1551.86,0.015433170501618508
1552.36,0.015362460057485029
1552.87,0.015614816964971162
1553.39,0.01588825523660947
1553.89,0.016100340563748847
1554.4,0.016347569764731718
1554.9,0.016621974095336098
1555.42,0.016912782778512638
1555.92,0.01723272533096602
1556.43,0.017527612205930587
1556.95,0.017762012618965137
1557.44,0.0179126946100046
1557.95,0.017917198076946795
1558.47,0.017790771429208454
1558.97,0.017666413774145972
1559.48,0.017622152592186597
1560.0,0.017747329661605405
1560.49,0.01817650868945581
1560.99,0.0188202946893956
1561.51,0.019584807525076516
1562.01,0.02040554601706032
1562.52,0.02121159013454713
1563.03,0.02192910459278317
1563.53,0.022485841561780965
1564.04,0.022819168614925566
1564.55,0.02286383632033175
1565.07,0.022527302033287937
1565.57,0.02186792860806292
1566.07,0.020975358272209053
1566.59,0.019921676646758157
1567.09,0.01876120914747892
1567.6,0.01756460448315024
1568.12,0.016522904762344647
1568.61,0.015775029615924425
1569.12,0.015454950143102438
1569.64,0.015780408763252537
1570.14,0.016666517688881666
1570.65,0.017907640340099448
1571.17,0.019357791089913565
1571.66,0.020917193816220037
1572.17,0.022494512544442943
1572.69,0.023713379352313272
1573.19,0.024319603552274326
1573.7,0.02405041972298515
1574.2,0.022224407999773647
1574.72,0.019188614539245915
1575.21,0.016028482374040295
1575.72,0.013379213999926347
1576.24,0.01214336423003071
1576.74,0.013590395067217651
1577.24,0.016354230451325124
1577.76,0.019416647995120686
1578.26,0.022021314916146464
1578.77,0.02265514832689574
1579.29,0.021040052924662937
1579.78,0.018854358205602384
1580.29,0.01688576621946719
1580.81,0.016105394814924113
1581.31,0.018228212175195452
1581.82,0.021831785512522787
1582.34,0.025556485454200622
1582.83,0.028530441184489833
1583.34,0.02923766082880267
1583.85,0.026871719037872634
1584.37,0.02316985743689291
1584.87,0.019001580665347375
1585.37,0.015220158552772265
1585.89,0.013312110048128217
1586.39,0.012881043521661195
1586.9,0.013240420755160912
1587.42,0.014081243707917612
1587.92,0.014881172474506692
1588.42,0.015142752272290708
1588.94,0.015370952044900922
1589.44,0.015760784927842674
1589.94,0.016461222047469814
1590.46,0.017940602470325168
1590.95,0.019876442857403042
1591.46,0.021640041419796228
1591.98,0.02287345787082356
1592.48,0.023030585427462044
1592.99,0.02147165146062885
1593.5,0.019118323716081104
1594.01,0.016589363781455688
1594.51,0.014386968476259494
1595.02,0.013430478818767681
1595.54,0.013789243458993787
1596.04,0.014739792942767949
1596.54,0.01593865543482909
1597.06,0.016990247167912385
1597.56,0.017337794575609272
1598.07,0.017172422687094555
1598.59,0.016631086142083033
1599.09,0.015759345224918002
1599.59,0.014628219262019806
1600.11,0.01332990980132826
1600.61,0.011969912658355066
1601.12,0.010655894976201601
1601.64,0.009503971263793863
1602.13,0.008647519527212906
1602.64,0.00811194459674689
1603.15,0.007899670633220258
1603.67,0.008018392279679517
1604.17,0.008537221853795534
1604.67,0.009458127349285674
1605.18,0.010449997920865648
1605.68,0.011307203660370687
1606.19,0.011798836680529739
1606.71,0.011448002392707383
1607.21,0.010529690298267176
1607.71,0.009505959842662125
1608.23,0.008647830491115083
1608.73,0.008419991756173594
1609.24,0.00930252061041235
1609.76,0.010546156761269876
1610.26,0.011716586793838376
1610.76,0.01243962591330134
1611.28,0.011876717724800633
1611.78,0.010253766888934328
1612.29,0.008472791508378064
1612.8,0.007013270498957126
1613.31,0.006525927619233686
1613.81,0.007893767259639846
1614.32,0.010256756670049948
1614.84,0.01298180779723221
1615.34,0.015616190080325523
1615.85,0.017392064843883833
1616.36,0.01803573119093309
1616.86,0.01805378197242712
1617.37,0.017640498972049914
1617.89,0.016984215986488565
1618.39,0.016378786956632797
1618.88,0.015838589995411975
1619.4,0.015375486169716656
1619.9,0.015052146496572003
1620.41,0.015012967706072154
1620.93,0.015305333470980686
1621.43,0.015619270786379556
1621.93,0.015794029315155687
1622.44,0.015612297023418462
1622.95,0.014528339499297393
1623.46,0.013028237298706525
1623.97,0.011756989785961207
1624.48,0.01110071148486157
1624.98,0.01179661597810498
1625.49,0.014501634655922363
1626.01,0.017755595799378777
1626.51,0.02069127217309683
1627.02,0.02251721115919023
1627.53,0.021603555098794632
1628.03,0.018404561386807978
1628.54,0.014463426686941781
1629.06,0.010619325119657304
1629.56,0.008000283264643932
1630.06,0.008037658127652591
1630.58,0.009548445394531384
1631.08,0.011737001630911514
1631.59,0.014065328221119371
1632.11,0.01562931731175524
1632.61,0.01608555241119389
1633.11,0.015854551598597447
1633.61,0.015051714082680471
1634.13,0.013738357228866249
1634.63,0.011973048343095802
1635.14,0.010093300652885339
1635.65,0.008419856588788984
1636.15,0.007236595643945509
1636.66,0.007014245225825337
1637.18,0.007972489281987323
1637.68,0.009529002651943043
1638.19,0.011362253929797193
1638.7,0.013152404053235589
1639.2,0.01439088976706265
1639.71,0.015117099477168843
1640.23,0.015467472700170485
1640.73,0.015476221781198235
1641.23,0.015182074219081765
1641.75,0.014648341484978528
1642.25,0.013996438309065974
1642.76,0.013334290524657079
1643.27,0.012780176936981608
1643.79,0.012529423122491013
1644.28,0.012562626430903376
1644.79,0.012750422697847937
1645.31,0.013023765205749323
1645.81,0.01330767672761375
1646.32,0.013515320918489903
1646.84,0.013617222422608958
1647.33,0.013586114983207024
1647.83,0.013388331446325468
1648.35,0.012939585352857875
1648.85,0.012281885908850673
1649.36,0.011610595810212829
1649.87,0.011056543029963818
1650.37,0.010740767026937638
1650.88,0.010786968547830678
1651.4,0.011262189188591244
1651.9,0.01220238875482237
1652.41,0.013639107241704303
1652.91,0.015756633161506977
1653.43,0.018533980989176004
1653.93,0.021293040351379085
1654.44,0.02362575953718889
1654.96,0.025082858246475468
1655.45,0.024834080766351727
1655.96,0.02336904421970798
1656.48,0.021403745614446804
1656.98,0.019384469161516836
1657.49,0.017931712542314866
1658.01,0.01763078067088697
1658.5,0.01806407214925499
1659.01,0.01903163976910067
1659.53,0.020409150949537776
1660.03,0.02205571705189296
1660.54,0.02373877463175421
1661.05,0.02518919884707957
1661.55,0.026181018992390087
1662.06,0.026395489378640166
1662.56,0.025445537292964594
1663.08,0.023779730719386848
1663.58,0.021733250785082068
1664.08,0.01957505737484702
1664.6,0.017774800973756135
1665.1,0.01648686165042315
1665.61,0.015415522912249378
1666.13,0.014469223330509904
1666.62,0.013527816487204344
1667.13,0.012335677482453962
1667.65,0.011143289093378476
1668.15,0.010179738363140236
1668.66,0.009583827740317546
1669.18,0.009577274569093321
1669.67,0.010278839599752315
1670.18,0.011420930187731123
1670.7,0.01284476883841556
1671.2,0.014413316620475031
1671.71,0.015976982076058105
1672.21,0.017381468390790397
1672.73,0.018485908502987664
1673.23,0.019169539655187556
1673.74,0.019225057673641743
1674.26,0.01847139261045017
1674.76,0.017337922220809585
1675.26,0.016104078281453646
1675.78,0.015028991266960398
1676.28,0.01460538298083762
1676.79,0.014788777886752641
1677.3,0.015201018995519518
1677.79,0.015660548645769386
1678.3,0.015920858305462398
1678.82,0.015636243985694014
1679.32,0.015089377891715702
1679.83,0.014478534786656115
1680.35,0.01393258423318247
1680.84,0.013692586050569468
1681.35,0.013837539614444257
1681.86,0.014161782941428698
1682.37,0.01458349189989405
1682.88,0.014999922545948426
1683.38,0.01520236957680278
1683.9,0.015356612532797628
1684.4,0.01562500865266724
1684.91,0.016098974839966744
1685.43,0.01697950329569864
1685.93,0.01837286879646634
1686.43,0.019871460361786483
1686.95,0.021239843747589672
1687.45,0.022255310421644043
1687.96,0.022533550238783583
1688.48,0.02217459134555398
1688.97,0.02142635573929917
1689.48,0.02043174696208499
1690.0,0.019346079882571136
1690.5,0.018339414622973466
1691.01,0.017533705546260697
1691.51,0.017043431315078766
1692.01,0.016989978887450338
1692.52,0.01758656653338915
1693.03,0.018779403992558716
1693.55,0.020294998846930326
1694.05,0.02195378854558099
1694.55,0.023563617030053264
1695.07,0.024898991200761732
1695.57,0.025892341516172392
1696.08,0.02648268616488738
1696.6,0.02659678993305649
1697.1,0.026086051819508058
1697.6,0.02495633583541367
1698.12,0.023543977882470563
1698.62,0.0220604555208653
1699.13,0.020746034230002756
1699.65,0.01999559349675704
1700.14,0.019661288832446805
1700.65,0.01954413140215052
1701.16,0.019540944477612947
1701.67,0.019436920656970915
1702.18,0.019051135614087132
1702.69,0.018702442726565717
1703.2,0.018534100726188406
1703.7,0.018692841894820393
1704.21,0.019620871506026545
1704.73,0.020998668232652676
1705.23,0.02221550798196665
1705.73,0.022926780028652147
1706.24,0.02256968306644223
1706.74,0.02043651334074167
1707.25,0.017622683839324728
1707.77,0.014892030710062282
1708.27,0.012791752876698313
1708.77,0.012571945604527308
1709.29,0.01439351166891777
1709.79,0.017049528636786243
1710.3,0.020105515462054642
1710.81,0.023020341618050288
1711.31,0.024715597659557463
1711.82,0.02568132325451612
1712.33,0.026173099418248143
1712.85,0.02629658836744009
1713.35,0.026303706202425683
1713.86,0.026397783588092902
1714.37,0.026337866802379983
1714.87,0.026102984145477667
1715.38,0.025677337029997187
1715.9,0.024985491324747318
1716.4,0.024103609494864425
1716.9,0.023124292973430563
1717.42,0.022117726352534582
1717.92,0.021121326600081033
1718.43,0.020137993508340214
1718.95,0.019447678162504083
1719.45,0.019206419530123555
1719.95,0.019530682447445713
1720.45,0.020822761589402123
1720.96,0.022898922947734792
1721.47,0.025249658357723498
1721.98,0.02759847710888591
1722.49,0.029614377045427923
1722.99,0.030789346989584927
1723.5,0.03132891515615412
1724.02,0.03129518167251359
1724.52,0.030733100279418904
1725.03,0.0296827156947119
1725.54,0.028254589703601223
1726.04,0.026678693746557715
1726.55,0.025138582958413314
1727.07,0.02381839884733426
1727.57,0.022908563476785982
1728.07,0.022527301509191116
1728.59,0.022762721556888826
1729.09,0.02366520205667389
1729.6,0.025442930015264237
1730.11,0.028261198263454367
1730.62,0.031226189860645234
1731.12,0.03388828008773314
1731.63,0.03583290727715007
1732.15,0.0359569624056856
1732.65,0.03468109399094965
1733.16,0.03278871837300053
1733.67,0.030665981525876584
1734.17,0.028869387604046875
1734.68,0.028244717722600343
1735.19,0.028144468204761276
1735.69,0.028370324650094033
1736.2,0.02878057400112122
1736.71,0.02899300441880158
1737.21,0.028948501178960896
1737.72,0.028933487901114774
1738.24,0.029007564058215526
1738.74,0.02926015093114989
1739.24,0.029955897396921567
1739.75,0.030824891227523753
1740.26,0.03170044759925071
1740.77,0.03248288413213314
1741.28,0.03288205264319274
1741.79,0.03274877428460574
1742.29,0.03265900624951436
1742.8,0.03282945597857988
1743.32,0.033476684218168275
1743.82,0.03538556295702513
1744.33,0.03795569062453411
1744.84,0.040533914646873434
1745.34,0.042749948100825025
1745.85,0.04400654534559307
1746.37,0.043554528628288465
1746.87,0.04239622604484462
1747.38,0.04092292681673094
1747.89,0.03948643485380653
1748.39,0.0387987798220509
1748.9,0.038921099286105036
1749.4,0.03956574494801455
1749.91,0.04067251690714922
1750.41,0.042185477153762946
1750.92,0.04419244949891332
1751.43,0.04614429837117655
1751.94,0.04767238196777348
1752.45,0.0485025031371557
1752.97,0.04777125142289593
1753.46,0.04536940639744405
1753.97,0.04279201476221716
1754.49,0.04065446009214762
1754.99,0.039654290617268745
1755.5,0.04185253438516487
1756.01,0.0455592914094996
1756.51,0.04939600285741618
1757.02,0.05254144358978401
1757.54,0.05341709921571101
1758.04,0.05054025825104098
1758.55,0.04653048626397327
1759.05,0.04232587643230872
1759.56,0.038814719439583346
1760.07,0.03847289778931139
1760.58,0.04047037106362248
1761.09,0.043218184510393935
1761.59,0.04604067525059733
1762.1,0.047875148409670554
1762.62,0.04694954023855246
1763.12,0.04512544051103631
1763.63,0.043139960804106085
1764.14,0.04153682207906032
1764.63,0.04181922596094896
1765.14,0.044031780256485485
1765.66,0.046626502653466274
1766.16,0.04904289669974695
1766.67,0.05059009767313983
1767.18,0.04976054871176489
1767.68,0.04762743671714527
1768.19,0.04485709416424221
1768.7,0.04187867359676653
1769.21,0.03938970959107951
1769.72,0.037940599474566884
1770.22,0.037166852550852336
1770.73,0.03709346772733703
1771.24,0.03771263933653403
1771.75,0.03911482026858271
1772.27,0.041046550136658186
1772.76,0.04322336534699017
1773.27,0.04542730222602844
1773.79,0.047321953804494686
1774.29,0.04847435721996541
1774.8,0.04939890800805267
1775.32,0.05027742431426063
1775.81,0.051260702556715915
1776.32,0.05276275306793814
1776.84,0.05471803766988688
1777.34,0.05678381568994917
1777.85,0.058807391728998695
1778.36,0.0606444033393211
1778.85,0.0622396432332874
1779.36,0.06324294098735488
1779.87,0.06342348844064107
1780.38,0.0626385621968041
1780.89,0.06022826969138534
1781.39,0.05618886969901428
1781.91,0.05207404052721127
1782.41,0.04859745548920278
1782.92,0.046529546365734996
1783.44,0.04793656107865308
1783.93,0.05133572931083954
1784.44,0.05544005036683222
1784.96,0.05947987138478545
1785.46,0.06211839239898905
1785.97,0.062000125295476056
1786.49,0.060895111788263796
1786.98,0.05934269031219592
1787.49,0.05785909505720114
1788.01,0.05772649911397608
1788.51,0.05872927906403367
1789.02,0.06023134878784116
1789.52,0.062025826829417666
1790.03,0.06382572791697323
1790.54,0.06522274194515676
1791.05,0.06630744334104317
1791.57,0.067038589483976
1792.07,0.06737657862774298
1792.57,0.06704464292541609
1793.08,0.06615595754930051
1793.58,0.06530531209596943
1794.09,0.06477498665135957
1794.61,0.06491071087858818
1795.1,0.06672970868801624
1795.61,0.06917026006490158
1796.13,0.0714881370165063
1796.63,0.07319417461617463
1797.14,0.07332559342441705
1797.66,0.07120982062636597
1798.15,0.06826340164358595
1798.66,0.06499962164270967
1799.17,0.06195183466071601
1799.68,0.06022986796259638
1800.19,0.05964656009507236
1800.69,0.05986399949011393
1801.21,0.06078147647710494
1801.71,0.062284045507268244
1802.22,0.06426955555572436
1802.74,0.06630190791220508
1803.24,0.06806898208431378
1803.74,0.06930586094757195
1804.26,0.0691900700115248
1804.76,0.06793170243230508
