wavelength,flux
1448.26,0.04499183998392436
1448.76,0.04355637649180813
1449.28,0.044095158181660696
1449.78,0.04672358716006063
1450.29,0.05075543105492659
1450.81,0.05512186561524007
1451.3,0.058996049263926764
1451.81,0.06122155001284207
1452.33,0.06064251705527466
1452.83,0.058359744659945124
1453.34,0.05501781746972107
1453.86,0.051157447559306
1454.35,0.04781487311583064
1454.86,0.045011673847453276
1455.38,0.042274304956451014
1455.89,0.03948866101648679
1456.39,0.036345848571942965
1456.89,0.03242350788800379
1457.41,0.02874488757897496
1457.91,0.02595747813359967
1458.42,0.024616048017604322
1458.94,0.02595312206383461
1459.43,0.029508222720794695
1459.93,0.033725987393056094
1460.45,0.03768822914728864
1460.95,0.040166266476196734
1461.46,0.0396614110145872
1461.98,0.03749361795948629
1462.47,0.034540427626530985
1462.98,0.031445803508101756
1463.5,0.029401480670587506
1464.0,0.028574778998311217
1464.51,0.028215590147887427
1465.03,0.028032967921263082
1465.53,0.027696673261511963
1466.03,0.026744515002325085
1466.54,0.0253935267997443
1467.06,0.023784376125422387
1467.56,0.02197155454619725
1468.06,0.019980180011512427
1468.58,0.017936817697068348
1469.08,0.016075979775759513
1469.59,0.01455920121449397
1470.11,0.013641606712281198
1470.61,0.01373027322776657
1471.11,0.014299910756940164
1471.63,0.014932221236453809
1472.13,0.015300930785544523
1472.64,0.014648130474990027
1473.16,0.012926998069720311
1473.64,0.011285320593569183
1474.15,0.010303389965219187
1474.67,0.01073995790842518
1475.18,0.013916418717808434
1475.68,0.018440209820811074
1476.19,0.023027502648231748
1476.7,0.026775598605805695
1477.2,0.028170221561857507
1477.71,0.02657680911797784
1478.23,0.023495277780713038
1478.73,0.019673567851820846
1479.23,0.015855862392656014
1479.75,0.013165362086653329
1480.25,0.011481610869671003
1480.76,0.010610431055483878
1481.28,0.010548150314256944
1481.78,0.011363145268925966
1482.28,0.012955960960475674
1482.8,0.014751868849874441
1483.3,0.016357637478927375
1483.81,0.01729921162557334
1484.33,0.01672404082203291
1484.82,0.015174462142856478
1485.33,0.013349132692854619
1485.84,0.01168715824921632
1486.36,0.010925283812188479
1486.86,0.01159573698395727
1487.37,0.012828596217131413
1487.88,0.014188737190423592
1488.37,0.01525960930022086
1488.88,0.015210538250827263
1489.4,0.01439023492976002
1489.9,0.013396465456681944
1490.4,0.012546811191703013
1490.92,0.012375504731214694
1491.42,0.013355329197617848
1491.93,0.01470524559748946
1492.45,0.015991212839306445
1492.95,0.01683131626442768
1493.45,0.016484769462690868
1493.97,0.0151655242972056
1494.47,0.013443212910658328
1494.98,0.011628482460874338
1495.5,0.010137330945069951
1496.0,0.009417946025031841
1496.5,0.009176235498404024
1497.01,0.009266688093144067
1497.53,0.009597231479115417
1498.03,0.009984113221085384
1498.54,0.010378352463588038
1499.05,0.01080856703889116
1499.55,0.011243579546180084
1500.06,0.011673248559700729
1500.58,0.012112972816906462
1501.08,0.012398491351769006
1501.58,0.012418378011897678
1502.1,0.012078183012171999
1502.59,0.011160186789227991
1503.1,0.0097419894335205
1503.62,0.008174280902352492
1504.12,0.006670915192350183
1504.62,0.005496910867226444
1505.14,0.005006619920128027
1505.65,0.004970834325544031
1506.15,0.005215779832688908
1506.66,0.005625028387925094
1507.17,0.005977162421484415
1507.67,0.006193561066418915
1508.18,0.006425344361735522
1508.7,0.006714339969744678
1509.2,0.007123097903333643
1509.71,0.007794195991684408
1510.22,0.00852799297477845
1510.72,0.009150768710379642
1511.23,0.009542580690560154
1511.75,0.009476095476612968
1512.25,0.008885189380335898
1512.75,0.0081073260018274
1513.27,0.0073318727248863035
1513.77,0.006748837874769342
1514.28,0.006636346096460067
1514.8,0.006932416292335493
1515.31,0.007536016021569407
1515.8,0.008394858802022407
1516.31,0.009513111891105826
1516.83,0.010824284412482893
1517.32,0.011968610603160035
1517.83,0.012715102182534743
1518.34,0.012797694555728774
1518.84,0.0116878305798351
1519.35,0.009779581009640338
1519.87,0.00763664501359368
1520.37,0.0056283850012607975
1520.88,0.004306574137580256
1521.39,0.004151753384257281
1521.89,0.004619220572038713
1522.4,0.005429993398694737
1522.92,0.006343031014246515
1523.42,0.0068807760099942016
1523.92,0.007111248963347981
1524.44,0.007295653035172976
1524.95,0.007532072217023622
1525.45,0.008004658110211556
1525.96,0.008929229922406365
1526.48,0.009915900247512517
1526.97,0.010727282445169198
1527.48,0.011165081663432183
1528.0,0.010808962010841765
1528.5,0.00977019116883711
1529.01,0.008507816576673643
1529.52,0.007278626835858051
1530.02,0.006421815354487249
1530.53,0.006372933350911104
1531.05,0.0067806645582928655
1531.55,0.007404320959927461
1532.05,0.008076249067631384
1532.56,0.008486221392209158
1533.06,0.008556271581487638
1533.57,0.00849367991943767
1534.09,0.00837151116104694
1534.6,0.00827973239020449
1535.09,0.008375352726836559
1535.6,0.008529579782511426
1536.12,0.008640228645081459
1536.62,0.008646217374291174
1537.13,0.00842493021725052
1537.65,0.007945697382564813
1538.14,0.007380315169561521
1538.65,0.006821004774303578
1539.17,0.006363808385794494
1539.67,0.006156187582579746
1540.18,0.0061473424334987205
1540.69,0.006273338761483956
1541.19,0.006500119273475762
1541.7,0.006795152642926991
1542.22,0.007116801201091306
1542.72,0.007399232870701807
1543.23,0.007595469380849807
1543.74,0.007639750576251643
1544.25,0.007380789765841558
1544.75,0.006959271986088717
1545.26,0.0065624240592883675
1545.78,0.00630900389335627
1546.26,0.006412406544447847
1546.77,0.007049845172723829
1547.29,0.007851137030301596
1547.79,0.00859970931654419
1548.3,0.009097637187851792
1548.82,0.008964527324000802
1549.31,0.008301734759466713
1549.82,0.007408013656270787
1550.34,0.0064460818655553385
1550.84,0.005633249649554275
1551.35,0.00521776873201226
1551.86,0.0050408159406342
1552.36,0.005018992844749004
1552.87,0.005102755155888686
1553.39,0.0051934737843431006
1553.89,0.005264122909094271
1554.4,0.005346323844643529
1554.9,0.005437425166248121
1555.42,0.005533990718910961
1555.92,0.005640081158768698
1556.43,0.005738046125320259
1556.95,0.005816278410894852
1557.44,0.0058670384375678125
1557.95,0.005869986391783194
1558.47,0.005830054210122719
1558.97,0.005790718672533614
1559.48,0.005777648377502497
1560.0,0.005820161788983234
1560.49,0.005962326766830746
1560.99,0.0061749978565370685
1561.51,0.006427449651117658
1562.01,0.006698415667464353
1562.52,0.006964715686096826
1563.03,0.007202065343227097
1563.53,0.00738667394529202
1564.04,0.007497992511531013
1564.55,0.00751448793141604
1565.07,0.007405703653384183
1565.57,0.007190635130305316
1566.07,0.006898762031390375
1566.59,0.006553806584047869
1567.09,0.00617348148277833
1567.6,0.0057811072982014745
1568.12,0.0054395642020004025
1568.61,0.005194534099528309
1569.12,0.0050903363250989165
1569.64,0.005198778027659342
1570.14,0.005491964942045239
1570.65,0.005902320945555495
1571.17,0.006381804779714349
1571.66,0.006897443624199971
1572.17,0.007419284437721219
1572.69,0.007823142714224204
1573.19,0.008024951949825148
1573.7,0.00793795128833936
1574.2,0.007336916061292776
1574.72,0.006336189451270863
1575.21,0.005293854626889535
1575.72,0.004419863682166197
1576.24,0.004012523599553387
1576.74,0.0044916594505248954
1577.24,0.005406307404509428
1577.76,0.006420137124275494
1578.26,0.007282971504221526
1578.77,0.007494267832608709
1579.29,0.0069615776041320595
1579.78,0.00623972107341467
1580.29,0.005589465414805891
1580.81,0.005332348718418722
1581.31,0.0060364953553691805
1581.82,0.0072314480140738486
1582.34,0.008467085208637648
1582.83,0.009454361867073519
1583.34,0.00969082432037561
1583.85,0.008908562357191186
1584.37,0.007683005851678904
1584.87,0.006302156771594181
1585.37,0.005049054351817192
1585.89,0.004417052185039055
1586.39,0.004274915325254613
1586.9,0.0043951189081701
1587.42,0.0046752382802728466
1587.92,0.004941853746184564
1588.42,0.005029760269685003
1588.94,0.005106652042222173
1589.44,0.005237240492452067
1589.94,0.005471112572904934
1590.46,0.0059640705496427455
1590.95,0.006608927665736881
1591.46,0.007196813764795468
1591.98,0.0076086098347031
1592.48,0.007662420721719706
1592.99,0.007145217660032506
1593.5,0.006363390004107249
1594.01,0.005522769230991126
1594.51,0.004790522526114917
1595.02,0.004472938947752343
1595.54,0.004593367862937532
1596.04,0.0049109755856108234
1596.54,0.005311453813899884
1597.06,0.005663043366971971
1597.56,0.005780013199844068
1598.07,0.005726018579440868
1598.59,0.005546632662883918
1599.09,0.005256914658618521
1599.59,0.004880540448069283
1600.11,0.004448262699015082
1600.61,0.00399518918700059
1601.12,0.0035573028366582974
1601.64,0.0031733789173639987
1602.13,0.002887945935790416
1602.64,0.0027096063040243524
1603.15,0.0026392081025822015
1603.67,0.0026793949497838656
1604.17,0.002853298799865406
1604.67,0.0031616721109283324
1605.18,0.003493897865052249
1605.68,0.003781200121851351
1606.19,0.003946348371032632
1606.71,0.0038297378232043868
1607.21,0.003523177831235243
1607.71,0.0031812244456128395
1608.23,0.002894594725142867
1608.73,0.0028188443273926217
1609.24,0.00311487195449806
1609.76,0.003531955304666391
1610.26,0.00392464255093943
1610.76,0.004167581172842601
1611.28,0.003979731423500828
1611.78,0.003436512935392697
1612.29,0.002840138692489539
1612.8,0.0023513204947565127
1613.31,0.00218832301680177
1613.81,0.002647461386854919
1614.32,0.003440588728526142
1614.84,0.004355484898436631
1615.34,0.0052402470077381365
1615.85,0.005837197502430918
1616.36,0.0060542910043498085
1616.86,0.006061390520386136
1617.37,0.005923667741390264
1617.89,0.005704299069539279
1618.39,0.00550189434163446
1618.88,0.0053213157339626746
1619.4,0.0051666316482515484
1619.9,0.005058829178239527
1620.41,0.005046522945660977
1620.93,0.00514569207523317
1621.43,0.005252110850102366
1621.93,0.0053117538181249166
1622.44,0.005251517786368673
1622.95,0.004887725182866359
1623.46,0.004383782015228564
1623.97,0.003956686574967518
1624.48,0.003736442206885204
1624.98,0.003971322588608358
1625.49,0.004882767997985556
1626.01,0.005979390333393304
1626.51,0.006969126011601164
1627.02,0.007585362016509405
1627.53,0.0072787575390497366
1628.03,0.006201920184681659
1628.54,0.00487463021569504
1629.06,0.0035796309919706093
1629.56,0.0026972088661916614
1630.06,0.002710231290014075
1630.58,0.0032201754244112015
1631.08,0.0039588687567403014
1631.59,0.004744953488383268
1632.11,0.005273407133612724
1632.61,0.005428171378967737
1633.11,0.005351032021618324
1633.61,0.005080837441505626
1634.13,0.004638229692295001
1634.63,0.00404284790956688
1635.14,0.0034086478270788467
1635.65,0.002843934578186939
1636.15,0.0024446328293669935
1636.66,0.002369876550581338
1637.18,0.0026940470182734142
1637.68,0.003220492565574718
1638.19,0.003840643295269581
1638.7,0.004446404635029302
1639.2,0.004865800714123641
1639.71,0.00511209552978836
1640.23,0.005231360370152752
1640.73,0.005235067140827374
1641.23,0.0051362977440262345
1641.75,0.0049564587940539705
1642.25,0.004736546603582699
1642.76,0.004513114845240445
1643.27,0.0043261866991671704
1643.79,0.004241918499097493
1644.28,0.004253737224781673
1644.79,0.004317933033808355
1645.31,0.004411130474189736
1645.81,0.004507907135867246
1646.32,0.004578881154202202
1646.84,0.004614054632848593
1647.33,0.004604122705593155
1647.83,0.004537706202720422
1648.35,0.004386222386748951
1648.85,0.004163831305547205
1649.36,0.003936780848109575
1649.87,0.0037494234003667146
1650.37,0.003642817415327056
1650.88,0.0036589744068194962
1651.4,0.003820687195031011
1651.9,0.004140184551361797
1652.41,0.004628260764065621
1652.91,0.005347501909709477
1653.43,0.006290915230658369
1653.93,0.007228328965697183
1654.44,0.008021248207471566
1654.96,0.008517064934297875
1655.45,0.00843362424564789
1655.96,0.007937107018214906
1656.48,0.007270545433356541
1656.98,0.00658543747836084
1657.49,0.006092657877539359
1658.01,0.005991170149468663
1658.5,0.0061391383169165595
1659.01,0.0064687662023193765
1659.53,0.0069378425070679905
1660.03,0.007498468606767557
1660.54,0.008071650630706997
1661.05,0.008565856619789931
1661.55,0.008904183154045625
1662.06,0.008978196358284668
1662.56,0.00865608604768125
1663.08,0.008090384669785865
1663.58,0.007394979051104186
1664.08,0.006661392944023034
1664.6,0.006049482387901009
1665.1,0.005611780487311463
1665.61,0.005247722527153164
1666.13,0.004926159146787251
1666.62,0.0046061529380377955
1667.13,0.004200710512549041
1667.65,0.0037950973394023663
1668.15,0.003467318413841605
1668.66,0.0032647082326105964
1669.18,0.003262843468959949
1669.67,0.0035022264955350342
1670.18,0.0038917869259786396
1670.7,0.004377457640877817
1671.2,0.004912533735021753
1671.71,0.0054460668705362605
1672.21,0.00592543315468315
1672.73,0.006302623876382866
1673.23,0.006536377804347723
1673.74,0.006555994896709341
1674.26,0.006299653923599001
1674.76,0.005913684524099886
1675.26,0.005493394091862647
1675.78,0.005127196495707398
1676.28,0.004983176968992127
1676.79,0.005046258174307458
1677.3,0.005187443972051508
1677.79,0.005344772891418305
1678.3,0.005434151561937669
1678.82,0.0053375412966769195
1679.32,0.005151358013091215
1679.83,0.004943302127733375
1680.35,0.004757369632419832
1680.84,0.004675850796236402
1681.35,0.004725800059623461
1681.86,0.00483699254060935
1682.37,0.004981495512994571
1682.88,0.0051242190498487
1683.38,0.005193849240127527
1683.9,0.005247037266115218
1684.4,0.005339219985069643
1684.91,0.005501677021199452
1685.43,0.005803121326999386
1685.93,0.00627988414766294
1686.43,0.00679269567978379
1686.95,0.007261103440873167
1687.45,0.007608904229386225
1687.96,0.007704699385835192
1688.48,0.0075826281689595825
1688.97,0.007327368547553106
1689.48,0.006987824474828842
1690.0,0.006617084023695793
1690.5,0.006273279195130767
1691.01,0.005998169790655795
1691.51,0.005830918841542538
1692.01,0.005813095257309571
1692.52,0.006017702387621965
1693.03,0.00642637711580615
1693.55,0.006945580895832399
1694.05,0.007513850065995717
1694.55,0.008065443067269758
1695.07,0.008523192298746006
1695.57,0.008863893833920007
1696.08,0.009066681006578856
1696.6,0.009106447589976963
1697.1,0.008932233117934231
1697.6,0.008546025733081431
1698.12,0.008062985850810077
1698.62,0.0075554737761162494
1699.13,0.007105814284711573
1699.65,0.006849280422727365
1700.14,0.006735229969588099
1700.65,0.006695570334723269
1701.16,0.006694948608647325
1701.67,0.00665977243935816
1702.18,0.006528039352975626
1702.69,0.006408994983409559
1703.2,0.006351737696451142
1703.7,0.006406561088397857
1704.21,0.006725070536897423
1704.73,0.007197795534430359
1705.23,0.007615384223490074
1705.73,0.007859704099464621
1706.24,0.007737781074042488
1706.74,0.007006882239181842
1707.25,0.006042509986420797
1707.77,0.005106540946627354
1708.27,0.004386611758704518
1708.77,0.004311492272064904
1709.29,0.004936494134968949
1709.79,0.005847761934403899
1710.3,0.006896332671107407
1710.81,0.007896600463757356
1711.31,0.00847860029682871
1711.82,0.008810393521351252
1712.33,0.008979613666362636
1712.85,0.009022495840117961
1713.35,0.009025427600408493
1713.86,0.009058203242272175
1714.37,0.009038131791454443
1714.87,0.008957998320846572
1715.38,0.008812390228828524
1715.9,0.008575406470813696
1716.4,0.00827314852632252
1716.9,0.00793741062503153
1717.42,0.007592295267519629
1717.92,0.007250615787717129
1718.43,0.00691339113038539
1718.95,0.006676733543004993
1719.45,0.00659421267295625
1719.95,0.006705851549020837
1720.45,0.007149810716687252
1720.96,0.007863050850571632
1721.47,0.00867063804519743
1721.98,0.009477633317190119
1722.49,0.010170360063531692
1722.99,0.01057432112265141
1723.5,0.010760085956125534
1724.02,0.010748956065954345
1724.52,0.010556321653943785
1725.03,0.010195942163791756
1725.54,0.009705768558944753
1726.04,0.00916478031669339
1726.55,0.008636045090225985
1727.07,0.008182825736746717
1727.57,0.007870535752872079
1728.07,0.007739822929886731
1728.59,0.00782099063035663
1729.09,0.008131349433209313
1729.6,0.008742474189272466
1730.11,0.009711187385968639
1730.62,0.010730377083146803
1731.12,0.011645527608796908
1731.63,0.012314174787279407
1732.15,0.012357193432549861
1732.65,0.011919070749294387
1733.16,0.011269035938506275
1733.67,0.010539781300337996
1734.17,0.009922569909982219
1734.68,0.009708131132778044
1735.19,0.009673929835585153
1735.69,0.009751808346560387
1736.2,0.009893072265291541
1736.71,0.0099663358858321
1737.21,0.009951268382671677
1737.72,0.009946335340622534
1738.24,0.009972025727856543
1738.74,0.010059070002838332
1739.24,0.010298463612164424
1739.75,0.010597425147579389
1740.26,0.010898646937247358
1740.77,0.01116785689117944
1741.28,0.011305295734143907
1741.79,0.011259665500159586
1742.29,0.011228981872261823
1742.8,0.011287763447855816
1743.32,0.011510475128778024
1743.82,0.012166984554727938
1744.33,0.013050873470965757
1744.84,0.013937559683624264
1745.34,0.014699713520777704
1745.85,0.01513196831335546
1746.37,0.01497669868721282
1746.87,0.014578542357100838
1747.38,0.01407205353966354
1747.89,0.013578202314726782
1748.39,0.013341835737199886
1748.9,0.013383987629709274
1749.4,0.01360574429098495
1749.91,0.013986410054506805
1750.41,0.014506747710371947
1750.92,0.015196961335166596
1751.43,0.015868211802092972
1751.94,0.016393727669096844
1752.45,0.016679214857287933
1752.97,0.016427758898605434
1753.46,0.01560180029932684
1753.97,0.014715463049172647
1754.49,0.013980368478329352
1754.99,0.013636393478201081
1755.5,0.014392282018377577
1756.01,0.0156669001937487
1756.51,0.01698618471269265
1757.02,0.018067729239173227
1757.54,0.018368724776247358
1758.04,0.017379331577027056
1758.55,0.016000358152863412
1759.05,0.01455439993377067
1759.56,0.013346906184703335
1760.07,0.01322922849531961
1760.58,0.013915919815071547
1761.09,0.014860588617689944
1761.59,0.01583090342329342
1762.1,0.01646145471542148
1762.62,0.01614295383599551
1763.12,0.015515529356991704
1763.63,0.014832620606779005
1764.14,0.014281178621610569
1764.63,0.014378029471884534
1765.14,0.01513845537699035
1765.66,0.016030223378523174
1766.16,0.016860647021179828
1766.67,0.017392199186875554
1767.18,0.017106637050414892
1767.68,0.016372953203306492
1768.19,0.015420225548431563
1768.7,0.014396002719156713
1769.21,0.013540067436973887
1769.72,0.013041601225499303
1770.22,0.012775298517797433
1770.73,0.012749720313489924
1771.24,0.012962170504487546
1771.75,0.013443716645084008
1772.27,0.014107213797776904
1772.76,0.01485491460771428
1773.27,0.015611859209270088
1773.79,0.016262442966362554
1774.29,0.01665792142504373
1774.8,0.016975050286089706
1775.32,0.017276311603264958
1775.81,0.0176135702079716
1776.32,0.01812901175257413
1776.84,0.01880010734951948
1777.34,0.019509125142677452
1777.85,0.020203556945108614
1778.36,0.020833822431081655
1778.85,0.021380997799993234
1779.36,0.02172473506015332
1779.87,0.021785810743962387
1780.38,0.021515238435805373
1780.89,0.02068641164045265
1781.39,0.01929814080803679
1781.91,0.017884041459634837
1782.41,0.01668927816266806
1782.92,0.01597834064072096
1783.44,0.016460679004856083
1783.93,0.01762704501415779
1784.44,0.019035358054958342
1784.96,0.020421341343265707
1785.46,0.02132611578655674
1785.97,0.021284359416527673
1786.49,0.02090383828042891
1786.98,0.020369832151829113
1787.49,0.019859445627478555
1788.01,0.01981276410737994
1788.51,0.020155773627819742
1789.02,0.020670045943125243
1789.52,0.021284604279935407
1790.03,0.021900903844322542
1790.54,0.022378869782548032
1791.05,0.022749602061047834
1791.57,0.022998941576759056
1792.07,0.02311341354404074
1792.57,0.022998047919491556
1793.08,0.022691679109446868
1793.58,0.022398407077430064
1794.09,0.02221497931229626
1794.61,0.022259934592898094
1795.1,0.02288216318151014
1795.61,0.023717339272020806
1796.13,0.024510275788123346
1796.63,0.02509338366598312
1797.14,0.02513655382892095
1797.66,0.02440936083114424
1798.15,0.023397655504055724
1798.66,0.02227724172620967
1799.17,0.021231002677397005
1799.68,0.020639233242248037
1800.19,0.02043769600004346
