wavelength,flux
1448.26,0.21798626823682216
1448.76,0.21088094275659827
1449.28,0.21333152266022848
1449.78,0.22588734313609748
1450.29,0.2452021976876702
1450.81,0.26610095387073796
1451.3,0.28460676949907665
1451.81,0.2951309934555513
1452.33,0.2921262095668642
1452.83,0.2809327524573277
1453.34,0.2646565433253498
1453.86,0.2459082341800203
1454.35,0.22968412047577325
1454.86,0.21606552113509683
1455.38,0.20277938424696354
1455.89,0.1892838063854732
1456.39,0.17409899488218214
1456.89,0.15520385500903763
1457.41,0.13749690101114037
1457.91,0.12407868436530062
1458.42,0.11758451173896571
1458.94,0.12388344191714956
1459.43,0.14075926476406633
1459.93,0.16076948543526864
1460.45,0.17953063926609322
1460.95,0.19120561353573415
1461.46,0.18867243342500453
1461.98,0.17823524341598465
1462.47,0.16408846902417765
1462.98,0.14928499283653715
1463.5,0.1394827885328185
1464.0,0.13547043599487418
1464.51,0.13367674884213798
1465.03,0.13271982492632803
1465.53,0.13104078778989087
1466.03,0.12645220668344626
1466.54,0.11998374433314815
1467.06,0.1123036305980453
1467.56,0.10367583401648957
1468.06,0.09421748214519797
1468.58,0.08452440306456609
1469.08,0.07570608464364456
1469.59,0.06851765202705479
1470.11,0.06415596570503058
1470.61,0.06453112185908363
1471.11,0.06716491877229029
1471.63,0.07008775228653663
1472.13,0.07177214959118403
1472.64,0.06866504814384691
1473.16,0.06055663232310752
1473.64,0.0528337321044477
1474.15,0.04820530489194285
1474.67,0.05021456357554518
1475.18,0.06502392564630338
1475.68,0.08610656625711825
1476.19,0.10745758722772379
1476.7,0.12486763670483596
1477.2,0.13128875031231427
1477.71,0.12378322320145947
1478.23,0.1093594752005861
1478.73,0.091513958988397
1479.23,0.0737094319425497
1479.75,0.06116243612415425
1480.25,0.05330709119494446
1480.76,0.0492312199909234
1481.28,0.04891077446420782
1481.78,0.05265732514193616
1482.28,0.06000154891791544
1482.8,0.06827510823086365
1483.3,0.07566059084664345
1483.81,0.07996584585516307
1484.33,0.07725806588777095
1484.82,0.07005784696425567
1485.33,0.061592440746991994
1485.84,0.0538908183181593
1486.36,0.050346052841267315
1486.86,0.05340341109561542
1487.37,0.0590449928592249
1487.88,0.06526518595010057
1488.37,0.07014975287063721
1488.88,0.06988152649249656
1489.4,0.0660718053277877
1489.9,0.0614723698507856
1490.4,0.05753936958559859
1490.92,0.05671878920482677
1491.42,0.06117328443156988
1491.93,0.06731596903809696
1492.45,0.07315791570026411
1492.95,0.07695607416049847
1493.45,0.07532743336840936
1493.97,0.06925698884234524
1494.47,0.06135583471859272
1494.98,0.05304176413824706
1495.5,0.04621215399578731
1496.0,0.0429078855054613
1496.5,0.04178249339355168
1497.01,0.04216953240883634
1497.53,0.043647586218945864
1498.03,0.04538102964750248
1498.54,0.047145411637693584
1499.05,0.049071109719489796
1499.55,0.05101696525209387
1500.06,0.0529358187640956
1500.58,0.054897449306602175
1501.08,0.05615962676745045
1501.58,0.05621791540264624
1502.1,0.054645791362101875
1502.59,0.0504646267399169
1503.1,0.044026536647590216
1503.62,0.03692014500010208
1504.12,0.030113172760583447
1504.62,0.02479976628847353
1505.14,0.02257471092051739
1505.65,0.02240066669214441
1506.15,0.023491478552386483
1506.66,0.025320425981232228
1507.17,0.026890389449373973
1507.67,0.027848610669193367
1508.18,0.02887462579142509
1508.7,0.030156152661187582
1509.2,0.03197453410738197
1509.71,0.034967544867392994
1510.22,0.03823839989082622
1510.72,0.04100858386118488
1511.23,0.04274085265966835
1511.75,0.04241922968386144
1512.25,0.0397526393396458
1512.75,0.03625295161463247
1513.27,0.03276712376033858
1513.77,0.030145321710023213
1514.28,0.029626705943667484
1514.8,0.030931309450876708
1515.31,0.033606245183091354
1515.8,0.03741672959987394
1516.31,0.04237801401240121
1516.83,0.04819241766908249
1517.32,0.05325974099692343
1517.83,0.05655126651264281
1518.34,0.05688816509795968
1518.84,0.051927435089776444
1519.35,0.04342621469102983
1519.87,0.03389214900595263
1520.37,0.024966326586371768
1520.88,0.01909295448529894
1521.39,0.018396857610090488
1521.89,0.02045769478422061
1522.4,0.02403583602874021
1522.92,0.028062397626009348
1523.42,0.030425856091164723
1523.92,0.031428902980062144
1524.44,0.03222679499316778
1524.95,0.03325385398637075
1525.45,0.03532236639680102
1525.96,0.039381895032658314
1526.48,0.04371057211371488
1526.97,0.04726388955018408
1527.48,0.04916757612232957
1528.0,0.0475744966066458
1528.5,0.04298093068060931
1529.01,0.03740843824268919
1529.52,0.03198748792398006
1530.02,0.028208016277343064
1530.53,0.027979139211841426
1531.05,0.029753885937345587
1531.55,0.03247448190627641
1532.05,0.03540403426400015
1532.56,0.037182594193881924
1533.06,0.037471142515043764
1533.57,0.03717847361263421
1534.09,0.03662512287697566
1534.6,0.03620560817077656
1535.09,0.036606306024143345
1535.6,0.03726196434809177
1536.12,0.03772636540179592
1536.62,0.037734308586287575
1537.13,0.03675051113111651
1537.65,0.0346427416105449
1538.14,0.03216261059807001
1538.65,0.029710711990847953
1539.17,0.02770553156904078
1539.67,0.026788888536369227
1540.18,0.026737455706215753
1540.69,0.027272297920190605
1541.19,0.028244847395169147
1541.7,0.029512665038050646
1542.22,0.03089454261683453
1542.72,0.03210554193993018
1543.23,0.03294129876721246
1543.74,0.033117577837181805
1544.25,0.03197981884567959
1544.75,0.03013944664099187
1545.26,0.02840733599304827
1545.78,0.02729720911408285
1546.26,0.02773232272022412
1546.77,0.03047480817911347
1547.29,0.03392240781832058
1547.79,0.037139756202057506
1548.3,0.03927186800741538
1548.82,0.03867893830657399
1549.31,0.03580325745597705
1549.82,0.03193409259433819
1550.34,0.027774375384920235
1550.84,0.02426115618947302
1551.35,0.022461455308049397
1551.86,0.02168977057117665
1552.36,0.021586196009923175
1552.87,0.021936446461501346
1553.39,0.022316090258105516
1553.89,0.022609607418942017
1554.4,0.02295227343620995
1554.9,0.023333049660516563
1555.42,0.02373652844380931
1555.92,0.02418092058999269
1556.43,0.024589905537215767
1556.95,0.02491380344094144
1557.44,0.02512046508902026
1557.95,0.025121906895802883
1558.47,0.02493971949925633
1558.97,0.024760700413325353
1559.48,0.024693903827264697
1560.0,0.024864436031718506
1560.49,0.02546102859101598
1560.99,0.02635786943454172
1561.51,0.027423223778583243
1562.01,0.028567100379595915
1562.52,0.029689880612860063
1563.03,0.030688352714527536
1563.53,0.03146161853970775
1564.04,0.03192195797137872
1564.55,0.031978402512313674
1565.07,0.03150165476543308
1565.57,0.030573962789729518
1566.07,0.02932064598269084
1566.59,0.027842425665736647
1567.09,0.026215756723064754
1567.6,0.0245391159834754
1568.12,0.023079398547833488
1568.61,0.022030823716496388
1569.12,0.021579810401007718
1569.64,0.022030092561720133
1570.14,0.023262924596660173
1570.65,0.024990662727272486
1571.17,0.02700932776556267
1571.66,0.029179968577491486
1572.17,0.0313746179235886
1572.69,0.03306849114283579
1573.19,0.033907812063443614
1573.7,0.033526397758275345
1574.2,0.030975412713133057
1574.72,0.02673931399425476
1575.21,0.022331792061245345
1575.72,0.01863731655506859
1576.24,0.016912664950503333
1576.74,0.018924681387081133
1577.24,0.0227693292311474
1577.76,0.02702807540825513
1578.26,0.03064841799684521
1578.77,0.03152494338536316
1579.29,0.029272207465784687
1579.78,0.02622686257713951
1580.29,0.02348434416048432
1580.81,0.022394985023453332
1581.31,0.02534243736415283
1581.82,0.03034709524355801
1582.34,0.035518223385231494
1582.83,0.03964473022399888
1583.34,0.0406203490905562
1583.85,0.03732679380084758
1584.37,0.03217892188505239
1584.87,0.02638541150939412
1585.37,0.021130972658860662
1585.89,0.018478664945127052
1586.39,0.01787727102728943
1586.9,0.01837287570031239
1587.42,0.019536206514091797
1587.92,0.020642549274878373
1588.42,0.021001876898540564
1588.94,0.021314660400618628
1589.44,0.02185158367819956
1589.94,0.02281890113553378
1590.46,0.024865346823607196
1590.95,0.02754390390762816
1591.46,0.029982754008243566
1591.98,0.031686231152909645
1592.48,0.03189863480910283
1592.99,0.029734432121850504
1593.5,0.026471054988851227
1594.01,0.022965640812171804
1594.51,0.0199134773651558
1595.02,0.018586474517362006
1595.54,0.01907973861456409
1596.04,0.02039167047793299
1596.54,0.022046654478839217
1597.06,0.02349728297443108
1597.56,0.023974066419887422
1598.07,0.02374149570801115
1598.59,0.022989235914625473
1599.09,0.02178073127180587
1599.59,0.020214186262762137
1600.11,0.018417043223261664
1600.61,0.016535392180722825
1601.12,0.01471780494621858
1601.64,0.013124615818156146
1602.13,0.011940037510418782
1602.64,0.011198740328717234
1603.15,0.010903938615647986
1603.67,0.011066001377585335
1604.17,0.011780178697818703
1604.67,0.013048858094376696
1605.18,0.014414991466866447
1605.68,0.015595013026060882
1606.19,0.01627049850130242
1606.71,0.015784154849716354
1607.21,0.014515767956807424
1607.71,0.013102475052646556
1608.23,0.01191776882528332
1608.73,0.011601995832810146
1609.24,0.01281603686445971
1609.76,0.014527076541282238
1610.26,0.016136852176807055
1610.76,0.017130059817384455
1611.28,0.01635231925671321
1611.78,0.014115638165051281
1612.29,0.011662095329069403
1612.8,0.009651699697938875
1613.31,0.008979636591567875
1613.81,0.010860143908009554
1614.32,0.014108957212411143
1614.84,0.017854697471764134
1615.34,0.02147472508670116
1615.85,0.02391320203339298
1616.36,0.02479445432527956
1616.86,0.024815592363962073
1617.37,0.024243863769607257
1617.89,0.023338334684414912
1618.39,0.022503091950740916
1618.88,0.021757775880836376
1619.4,0.021118384337839986
1619.9,0.02067125348603864
1620.41,0.02061438353215526
1620.93,0.021012654205640083
1621.43,0.02144054707307948
1621.93,0.021677299863439026
1622.44,0.02142471635277423
1622.95,0.01993427465679358
1623.46,0.017873370244004955
1623.97,0.016126993752663295
1624.48,0.015224559253852604
1624.98,0.016176679518848616
1625.49,0.019883179628387353
1626.01,0.02434108775471828
1626.51,0.0283615783910465
1627.02,0.03085994828214136
1627.53,0.029603520380318663
1628.03,0.025216367124932523
1628.54,0.019813722917514296
1629.06,0.014545497515860005
1629.56,0.010956614542077758
1630.06,0.01100626714080655
1630.58,0.013073155367812606
1631.08,0.016067367029884858
1631.59,0.019252013664484636
1632.11,0.021389665497002178
1632.61,0.02201102172701826
1633.11,0.02169194869201628
1633.61,0.020590699069889074
1634.13,0.018791361055270375
1634.63,0.01637453550497356
1635.14,0.013801848278916808
1635.65,0.01151194402451478
1636.15,0.009892807084087235
1636.66,0.009587522836085162
1637.18,0.010895787506638456
1637.68,0.013021284503412379
1638.19,0.015524283048654485
1638.7,0.01796772263686194
1639.2,0.01965701981377669
1639.71,0.020646176077745715
1640.23,0.021121786115842832
1640.73,0.021130939316267076
1641.23,0.020726581931612115
1641.75,0.019995193589517263
1642.25,0.01910282968136703
1642.76,0.01819667767250665
1643.27,0.017438182739202144
1643.79,0.017093721426924436
1644.28,0.017136838939314794
1644.79,0.01739071608905957
1645.31,0.017761149986250866
1645.81,0.018145995452821053
1646.32,0.01842671748910422
1646.84,0.01856317431280031
1647.33,0.018518447558893446
1647.83,0.018246532925064108
1648.35,0.017632618246759133
1648.85,0.016734255871005473
1649.36,0.01581757124897021
1649.87,0.015060824513003333
1650.37,0.014628844373213217
1650.88,0.014689889359727959
1651.4,0.015335056581033714
1651.9,0.01661319617588366
1652.41,0.018566887901538376
1652.91,0.021446807604792218
1653.43,0.025223886252582296
1653.93,0.028975258206764144
1654.44,0.03214554865624535
1654.96,0.034123737722622005
1655.45,0.03378123412612643
1655.96,0.031784416310249225
1656.48,0.029107709358236
1656.98,0.026358420555519603
1657.49,0.024379991585788303
1658.01,0.023967831267683475
1658.5,0.024553960790186697
1659.01,0.02586597551598879
1659.53,0.02773469883595011
1660.03,0.02996869203816498
1660.54,0.03225166231308824
1661.05,0.034218069874714326
1661.55,0.035561184924263724
1662.06,0.03584817385824218
1662.56,0.034553954417504085
1663.08,0.03228791326431169
1663.58,0.029505762282869434
1664.08,0.026572623608497867
1664.6,0.024125898945246207
1665.1,0.022375167059993397
1665.61,0.02091872577497451
1666.13,0.01963224677819653
1666.62,0.018352847589589074
1667.13,0.016733541899699115
1667.65,0.015114247732051124
1668.15,0.013805754901237912
1668.66,0.012996071774134154
1669.18,0.012985652091293895
1669.67,0.013935345350423504
1670.18,0.01548193090776063
1670.7,0.01741001376212241
1671.2,0.019533857815979872
1671.71,0.021650567740109834
1672.21,0.023551174265905358
1672.73,0.025044748661939106
1673.23,0.025968054555422372
1673.74,0.026040326139166296
1674.26,0.025016620286710905
1674.76,0.02347893194112648
1675.26,0.021805677843071077
1675.78,0.020347648715980066
1676.28,0.0197719758759652
1676.79,0.020018029894648414
1677.3,0.02057376724398076
1677.79,0.021193475701136017
1678.3,0.021543390584373653
1678.82,0.021155904626630504
1679.32,0.020413810963764257
1679.83,0.01958529776407744
1680.35,0.018844702299568233
1680.84,0.018518168437179593
1681.35,0.01871219276818926
1681.86,0.019148605093043784
1682.37,0.01971670261777421
1682.88,0.0202775499197725
1683.38,0.02054908567050185
1683.9,0.020755334599070478
1684.4,0.021115901387384964
1684.91,0.021754137792152448
1685.43,0.022941519912080148
1685.93,0.024821593804694002
1686.43,0.0268434359047531
1686.95,0.028688883209190465
1687.45,0.030057434036551683
1687.96,0.03043007732388708
1688.48,0.029942187268802458
1688.97,0.028929001296498214
1689.48,0.02758330265761253
1690.0,0.02611491747503038
1690.5,0.024753576063587333
1691.01,0.023663679315089673
1691.51,0.022999727281937717
1692.01,0.02292533678116962
1692.52,0.02372796380284655
1693.03,0.025334824095694146
1693.55,0.027376700268461403
1694.05,0.029611429188292005
1694.55,0.031779701543510334
1695.07,0.03357732135214675
1695.57,0.03491353786308675
1696.08,0.03570607281153131
1696.6,0.035856350601266254
1697.1,0.03516444797569845
1697.6,0.03363837261225172
1698.12,0.031731541604163235
1698.62,0.029729304330079417
1699.13,0.02795526410482146
1699.65,0.026941411956272743
1700.14,0.026488547560889707
1700.65,0.026328198001833128
1701.16,0.02632140290913528
1701.67,0.026178803102310303
1702.18,0.025656780443428
1702.69,0.025184811762300724
1703.2,0.024955777417159545
1703.7,0.02516720836934279
1704.21,0.026414199732621147
1704.73,0.02826634784037813
1705.23,0.02990161769429786
1705.73,0.030856176366062183
1706.24,0.03037277318278089
1706.74,0.0274996165066232
1707.25,0.023711120188462855
1707.77,0.020035190688962097
1708.27,0.017208017190591823
1708.77,0.016910817279645943
1709.29,0.019359261308059643
1709.79,0.02292957328763672
1710.3,0.027037077257443136
1710.81,0.03095404102553155
1711.31,0.03323063587750447
1711.82,0.03452599801493886
1712.33,0.035184017968435774
1712.85,0.035346832051558474
1713.35,0.03535334195332364
1713.86,0.03547666673408347
1714.37,0.03539304134840087
1714.87,0.035074400629683644
1715.38,0.034499458227306
1715.9,0.03356694158082247
1716.4,0.032379426299073796
1716.9,0.031061243738006557
1717.42,0.029706592174904577
1717.92,0.028365935397684852
1718.43,0.02704301298371222
1718.95,0.026113735960704036
1719.45,0.025787640353872036
1719.95,0.026220844867562113
1720.45,0.027953216130079884
1720.96,0.030737753094425405
1721.47,0.03389036957866985
1721.98,0.03703989818549362
1722.49,0.03974214153398001
1722.99,0.04131559140332347
1723.5,0.04203616716993281
1724.02,0.0419873943276194
1724.52,0.04122997186650478
1725.03,0.03981758828209947
1725.54,0.037898769596174144
1726.04,0.03578213686690839
1726.55,0.03371378812928692
1727.07,0.03194065546787419
1727.57,0.03071815409080812
1728.07,0.03020456287435908
1728.59,0.03051774754278606
1729.09,0.03172523845615882
1729.6,0.03410575362518716
1730.11,0.03788062034262471
1730.62,0.04185155752678855
1731.12,0.04541601985135416
1731.63,0.04801843209031185
1732.15,0.048180887159391124
1732.65,0.04646777715607606
1733.16,0.04392890167861538
1733.67,0.04108182268344924
1734.17,0.03867213215258255
1734.68,0.037832495229825645
1735.19,0.03769538062892156
1735.69,0.037995092326762216
1736.2,0.0385416462644008
1736.71,0.03882324037463554
1737.21,0.03876083800677858
1737.72,0.038737883522307774
1738.24,0.038834158403275164
1738.74,0.03916950867188018
1739.24,0.04009802243357572
1739.75,0.04125824499322103
1740.26,0.04242709626503804
1740.77,0.04347117265680787
1741.28,0.04400223043298157
1741.79,0.043820765451198285
1742.29,0.043697617230104714
1742.8,0.0439225852658507
1743.32,0.04478531246333613
1743.82,0.047335784521188126
1744.33,0.050770356368744
1744.84,0.05421529791250496
1745.34,0.057175451770957134
1745.85,0.05885204500111361
1746.37,0.05824349576346081
1746.87,0.05669078214644212
1747.38,0.05471704513712375
1747.89,0.052792802473872746
1748.39,0.05187002007018875
1748.9,0.05203008986764621
1749.4,0.05288842836281487
1749.91,0.05436429745173581
1750.41,0.05638295277980805
1750.92,0.05906152143762243
1751.43,0.061666095974414525
1751.94,0.06370408141915312
1752.45,0.06480920629296515
1752.97,0.06382795327485229
1753.46,0.060615112708232416
1753.97,0.057168018348906696
1754.49,0.05430887413766515
1754.99,0.05296953979446267
1755.5,0.05590244520637856
1756.01,0.06084980353608929
1756.51,0.0659702111501365
1757.02,0.07016677893602172
1757.54,0.07133176101188862
1758.04,0.06748610915521362
1758.55,0.062128153558491196
1759.05,0.05651079212035365
1759.56,0.051819844715456614
1760.07,0.05136046256894404
1760.58,0.05402387569871734
1761.09,0.05768856626158575
1761.59,0.06145259546695582
1762.1,0.06389746894085985
1762.62,0.06265843006858908
1763.12,0.0602206430333278
1763.63,0.057567731493050896
1764.14,0.05542532208219557
1764.63,0.055799157432810255
1765.14,0.058748094865680764
1765.66,0.06220652795791305
1766.16,0.0654268337553801
1766.67,0.06748723952215574
1767.18,0.06637703041290913
1767.68,0.06352826442526555
1768.19,0.05982982596782043
1768.7,0.05585428521447464
1769.21,0.052531946522429436
1769.72,0.05059670025815863
1770.22,0.049562326027767896
1770.73,0.04946191591533464
1771.24,0.05028496920520593
1771.75,0.052151946182986374
1772.27,0.054724713061376606
1772.76,0.057624145813274616
1773.27,0.06055935814537161
1773.79,0.0630819514208524
1774.29,0.06461504399811824
1774.8,0.0658442429487102
1775.32,0.06701192700367772
1775.81,0.06831933842705162
1776.32,0.07031790138598612
1776.84,0.07292023895386507
1777.34,0.07566973619754838
1777.85,0.07836270267681218
1778.36,0.08080685783621785
1778.85,0.08292882806760253
1779.36,0.08426181604947848
1779.87,0.08449857215250817
1780.38,0.083449103770114
1780.89,0.08023449045475786
1781.39,0.07485009579625436
1781.91,0.0693655950186743
1782.41,0.06473185404300458
1782.92,0.06197475349000559
1783.44,0.06384606655902567
1783.93,0.06837062150674007
1784.44,0.07383382669992791
1784.96,0.07921064894003944
1785.46,0.08272112113733454
1785.97,0.08256029651388311
1786.49,0.08108553963259436
1786.98,0.07901539114302585
1787.49,0.07703694911014738
1788.01,0.07685736202674276
1788.51,0.07818952354418103
1789.02,0.08018626222096636
1789.52,0.08257221161982439
1790.03,0.08496517436758226
1790.54,0.08682168733465971
1791.05,0.08826237645224418
1791.57,0.08923232982182402
1792.07,0.08967907742609063
1792.57,0.08923418048604653
1793.08,0.08804829841160261
1793.58,0.08691321839280064
1794.09,0.08620448237809805
1794.61,0.0863821409864829
1795.1,0.08879999391253537
1795.61,0.09204470887537439
1796.13,0.09512595115210887
1796.63,0.09739303252506379
1797.14,0.097564808439888
1797.66,0.09474660387232717
1798.15,0.09082361904551423
1798.66,0.08647856426515863
1799.17,0.08242116640281004
1799.68,0.0801278730122643
1800.19,0.07934953812642771
1800.69,0.079636552116378
1801.21,0.08085471979047555
1801.71,0.0828512403038644
1802.22,0.08549003734185598
1802.74,0.08819098539611303
1803.24,0.09053906897681747
1803.74,0.09218186775290803
1804.26,0.09202542211474002
1804.76,0.09034948347597982
1805.27,0.08835864589399228
1805.79,0.08659204550802478
1806.28,0.08578031525738168
1806.79,0.08756682283733615
1807.31,0.09034389883590715
