wavelength,flux
1448.26,0.08536659450110821
1448.76,0.08261787899508133
1449.28,0.08361348493114212
1449.78,0.08857074007059137
1450.29,0.09618402721571165
1450.81,0.10442593373542357
1451.3,0.11173250498609882
1451.81,0.11591193127256469
1452.33,0.11477992909010426
1452.83,0.11042629716746996
1453.34,0.10407120276746794
1453.86,0.09673906481421131
1454.35,0.09039196833854922
1454.86,0.08506696745987959
1455.38,0.07986912793102038
1455.89,0.07458378298473417
1456.39,0.06862765862427492
1456.89,0.06120360640654004
1457.41,0.05424322105888357
1457.91,0.048968923579094235
1458.42,0.04642451135685757
1458.94,0.0489313651090869
1459.43,0.05561825143223743
1459.93,0.06354966372841149
1460.45,0.07099436517780645
1460.95,0.07564051393111765
1461.46,0.07466787626425303
1461.98,0.07056566061979237
1462.47,0.0649893116206005
1462.98,0.0591494061564306
1463.5,0.055287654462792775
1464.0,0.05371781486847867
1464.51,0.05302722433770812
1465.03,0.0526685006848321
1465.53,0.05202196958173431
1466.03,0.05021939566263209
1466.54,0.04766890477217138
1467.06,0.044635165616641145
1467.56,0.041221572083287396
1468.06,0.037475013929267054
1468.58,0.0336327101857209
1469.08,0.03013513190154107
1469.59,0.02728413694093399
1470.11,0.025557189395339307
1470.61,0.02571619541434555
1471.11,0.026775716108158838
1471.63,0.027951678787612146
1472.13,0.028634004476891576
1472.64,0.027404701429282634
1473.16,0.024177817322127596
1473.64,0.021101804025059765
1474.15,0.019260397626806352
1474.67,0.02007081588460463
1475.18,0.025999793464276725
1475.68,0.034442196686055325
1476.19,0.042998401574599394
1476.7,0.049983355627842986
1477.2,0.05257264484192234
1477.71,0.049585382815026884
1478.23,0.04382386011423816
1478.73,0.03668574013477173
1479.23,0.029558908275544738
1479.75,0.024536427710028192
1480.25,0.021392730639096084
1480.76,0.01976420065687014
1481.28,0.019642797210427682
1481.78,0.021154911658432796
1482.28,0.024113939651440715
1482.8,0.027449040042056738
1483.3,0.030428958110527492
1483.81,0.03217193490159576
1484.33,0.031093846539090246
1484.82,0.028205638137726655
1485.33,0.024806231921609717
1485.84,0.021712111200510757
1486.36,0.020291271015802994
1486.86,0.021530940779568866
1487.37,0.023813867082778578
1487.88,0.026331822872606544
1488.37,0.02831207354695642
1488.88,0.028213679566341698
1489.4,0.02668504592146603
1489.9,0.02483589947696894
1490.4,0.02325481353912395
1490.92,0.022931269630593207
1491.42,0.024740592702000016
1491.93,0.027234296304372105
1492.45,0.029608180490234674
1492.95,0.03115583865731919
1493.45,0.030506721000075704
1493.97,0.028058036149738248
1494.47,0.024865356307012913
1494.98,0.02150326953743227
1495.5,0.018741011189836045
1496.0,0.01740676556964484
1496.5,0.016955834004589304
1497.01,0.017118667963324317
1497.53,0.01772475820495528
1498.03,0.018434751301430678
1498.54,0.01915789311184586
1499.05,0.019947075715360175
1499.55,0.020744828733765257
1500.06,0.021532242001040123
1500.58,0.02233771051802589
1501.08,0.022858704127096414
1501.58,0.022889837802421206
1502.1,0.02225720207563346
1502.59,0.020560707631503045
1503.1,0.017943532023281177
1503.62,0.01505225902627265
1504.12,0.012281001444431967
1504.62,0.010117274249174444
1505.14,0.00921259574679496
1505.65,0.00914453334644313
1506.15,0.009592872393905489
1506.66,0.010343070098986693
1507.17,0.01098791709462012
1507.67,0.011383048394014945
1508.18,0.01180621250979891
1508.7,0.012334221573327022
1509.2,0.01308205163240068
1509.71,0.014311165189655063
1510.22,0.015654797887419494
1510.72,0.016794126229949084
1511.23,0.01750907051564071
1511.75,0.01738290355472592
1512.25,0.016295191281295543
1512.75,0.014865191639865136
1513.27,0.01344015052364695
1513.77,0.012368549210965
1514.28,0.012159552185313342
1514.8,0.012699020550679414
1515.31,0.013801511529768409
1515.8,0.01537098320619605
1516.31,0.017414481556392976
1516.83,0.019810028423968718
1517.32,0.021899474919317048
1517.83,0.02326002542295567
1518.34,0.023405755398286036
1518.84,0.0213711349986721
1519.35,0.01787783663182522
1519.87,0.013957146749319126
1520.37,0.010284454378141268
1520.88,0.00786739750054103
1521.39,0.007582853109431876
1521.89,0.008434782022823762
1522.4,0.009913039440990175
1522.92,0.0115772403807683
1523.42,0.012555972519211228
1523.92,0.012973697036075068
1524.44,0.013307099216305815
1524.95,0.013735269102569985
1525.45,0.014593889870692857
1525.96,0.016275944196145586
1526.48,0.018070350888994353
1526.97,0.019544845870145978
1527.48,0.020338035406130217
1528.0,0.019684935649979054
1528.5,0.017789343930565134
1529.01,0.01548746015265147
1529.52,0.013246982683915073
1530.02,0.011685110496150713
1530.53,0.011593651589051424
1531.05,0.012332677187001633
1531.55,0.013464135373644517
1532.05,0.014682880829492777
1532.56,0.015424910177090474
1533.06,0.015548969092732125
1533.57,0.015431923813954028
1534.09,0.015206651046145877
1534.6,0.015036736574023797
1535.09,0.015207288839929977
1535.6,0.015484041032422935
1536.12,0.015681525799576497
1536.62,0.01568915100990503
1537.13,0.015284394238174126
1537.65,0.01441189173640529
1538.14,0.013383709255727062
1538.65,0.01236685285435076
1539.17,0.011535478830916884
1539.67,0.011156855927355703
1540.18,0.011138514416666355
1540.69,0.011364457272569179
1541.19,0.011772897048557765
1541.7,0.012304720292110058
1542.22,0.012884463272642734
1542.72,0.013393092456569566
1543.23,0.013745480358742693
1543.74,0.013822793651490065
1544.25,0.013351529757439834
1544.75,0.012586514671781353
1545.26,0.011866371060728267
1545.78,0.0114057769142176
1546.26,0.011590512750074177
1546.77,0.01274012670647105
1547.29,0.014185276006399454
1547.79,0.01553472935042162
1548.3,0.016430913756298158
1548.82,0.016187217036195158
1549.31,0.014987549436412027
1549.82,0.013371414184785182
1550.34,0.011632784839764933
1550.84,0.01016395563201789
1551.35,0.0094124566817601
1551.86,0.009091459529374672
1552.36,0.009050359332559757
1552.87,0.009199600801418543
1553.39,0.009361290952018342
1553.89,0.009486825034706678
1554.4,0.009633092783289197
1554.9,0.009795378805335842
1555.42,0.009967373525920115
1555.92,0.010156533738833597
1556.43,0.010330958276531297
1556.95,0.010469760254043578
1557.44,0.01055918882214231
1557.95,0.010562475705076025
1558.47,0.01048858266540503
1558.97,0.010415873684560727
1559.48,0.010390392386691026
1560.0,0.010464827895814025
1560.49,0.010718500251290607
1560.99,0.011098770105934432
1561.51,0.01155030672725561
1562.01,0.012035028183455712
1562.52,0.012511148890029775
1563.03,0.012935101383165237
1563.53,0.013264242955524148
1564.04,0.013461638072880752
1564.55,0.013488754924499831
1565.07,0.013290979615615293
1565.57,0.012902665638068734
1566.07,0.012376705908882476
1566.59,0.011755640902806059
1567.09,0.011071461129645329
1567.6,0.010365888989005603
1568.12,0.00975167031838478
1568.61,0.009310772619233673
1569.12,0.009122353757942821
1569.64,0.009314974633856977
1570.14,0.009838556765314175
1570.65,0.01057178578334747
1571.17,0.011428509919885371
1571.66,0.012349790264091717
1572.17,0.013281768700791062
1572.69,0.014002200484575865
1573.19,0.01436090627260908
1573.7,0.014202698982482076
1574.2,0.013125043295844463
1574.72,0.011332801306606102
1575.21,0.009466899007399322
1575.72,0.00790257111488218
1576.24,0.007172980410905197
1576.74,0.00802813268052209
1577.24,0.009661272113749463
1577.76,0.011470991787045807
1578.26,0.013010425697978573
1578.77,0.013385575566628104
1579.29,0.01243194776728187
1579.78,0.011141019550521537
1580.29,0.0099782766896255
1580.81,0.009517613304230838
1581.31,0.01077262955510989
1581.82,0.012902925795106969
1582.34,0.015105033141194286
1582.83,0.016863561881124048
1583.34,0.01728241573646916
1583.85,0.01588466929913826
1584.37,0.01369705822872333
1584.87,0.011233471071272753
1585.37,0.008998365417426568
1585.89,0.007870680161529203
1586.39,0.007616166491438995
1586.9,0.007829021548448828
1587.42,0.008326592974828316
1587.92,0.008800010724272903
1588.42,0.008955101360036289
1588.94,0.009090479245417333
1589.44,0.009321446292217098
1589.94,0.009736141700231495
1590.46,0.010611624292717886
1590.95,0.011757156207285544
1591.46,0.012800919459432417
1591.98,0.013531147759004788
1592.48,0.013624691343216835
1592.99,0.0127030002766481
1593.5,0.011311227494414967
1594.01,0.009815414131924076
1594.51,0.008512687583627141
1595.02,0.007947081736155888
1595.54,0.008159727824144763
1596.04,0.008722577539713757
1596.54,0.00943242299786047
1597.06,0.010055184437373231
1597.56,0.01026129419974708
1598.07,0.010163845676201416
1598.59,0.009843863204106199
1599.09,0.00932826309382619
1599.59,0.0086590778988258
1600.11,0.00789088237015125
1600.61,0.007086090925754525
1601.12,0.006308459281560211
1601.64,0.00562673378540858
1602.13,0.005119877421356347
1602.64,0.004802975115815387
1603.15,0.004677476328730936
1603.67,0.00474796388216911
1604.17,0.005055375296386292
1604.67,0.005600910426086182
1605.18,0.00618851642111157
1605.68,0.00669640957347057
1606.19,0.006987835437462513
1606.71,0.0067803186563847855
1607.21,0.006236661338027949
1607.71,0.005630521462144346
1608.23,0.005122434766283176
1608.73,0.0049876598422219295
1609.24,0.0055106384472045095
1609.76,0.006247580116173822
1610.26,0.006941196492543549
1610.76,0.007369806187388117
1611.28,0.007036573478346196
1611.78,0.006075241801417601
1612.29,0.005020213605710583
1612.8,0.00415558069457751
1613.31,0.0038669516469194555
1613.81,0.004677628985989523
1614.32,0.006078083723513874
1614.84,0.007693202627941709
1615.34,0.009254687736379646
1615.85,0.010307485102084811
1616.36,0.010689320912679694
1616.86,0.010700374186282524
1617.37,0.010455775293051625
1617.89,0.010067129914449288
1618.39,0.009708587170251064
1618.88,0.009388680873752041
1619.4,0.009114470109609115
1619.9,0.008923081527478456
1620.41,0.008900143619177042
1620.93,0.009073763978439467
1621.43,0.009260171165526628
1621.93,0.009364070761661524
1622.44,0.00925661530450676
1622.95,0.008614200151983258
1623.46,0.00772499331888812
1623.97,0.006971431623633535
1624.48,0.006582485798003099
1624.98,0.00699535065764917
1625.49,0.008599676294345951
1626.01,0.0105296430833962
1626.51,0.012270951722268364
1627.02,0.013354218175370126
1627.53,0.012812733989634601
1628.03,0.010915771434349528
1628.54,0.008578526367197213
1629.06,0.006298702376829022
1629.56,0.004745386962390543
1630.06,0.004767687761000949
1630.58,0.005664001174307256
1631.08,0.006962410923014513
1631.59,0.008343808376447251
1632.11,0.009271853466321884
1632.61,0.009542761571356254
1633.11,0.009405968228992881
1633.61,0.008929905506166904
1634.13,0.008150934914772852
1634.63,0.007103764080799571
1635.14,0.005988641376322159
1635.65,0.00499586850449903
1636.15,0.004293895853055945
1636.66,0.004162067936947659
1637.18,0.004730785982847769
1637.68,0.005654541829122828
1638.19,0.006742565875358413
1638.7,0.007805064358574569
1639.2,0.008540225349972634
1639.71,0.00897140794258695
1640.23,0.00917956389887004
1640.73,0.009184968966824083
1641.23,0.009010602357968292
1641.75,0.008694036059439076
1642.25,0.00830730764898851
1642.76,0.007914483038546074
1643.27,0.00758576334869421
1643.79,0.007437095813268763
1644.28,0.007456962566119142
1644.79,0.007568600792387076
1645.31,0.007731026482202666
1645.81,0.007899724925940248
1646.32,0.008023157182717549
1646.84,0.0080838223856618
1647.33,0.008065516486980983
1647.83,0.007948260715543548
1648.35,0.007682012544079318
1648.85,0.0072916912983943365
1649.36,0.006893287004772072
1649.87,0.006564471353954995
1650.37,0.006377110985553421
1650.88,0.006404665362427028
1651.4,0.00668695292445932
1651.9,0.0072453321941726824
1652.41,0.00809855343521726
1652.91,0.00935605449268416
1653.43,0.011005405682978843
1653.93,0.012643946253662329
1654.44,0.014029378134053914
1654.96,0.014894893201969815
1655.45,0.014747406428072372
1655.96,0.013877649001598148
1656.48,0.012710778852447153
1656.98,0.011511802941993407
1657.49,0.01064923227017785
1658.01,0.010470687786489408
1658.5,0.010728177688546631
1659.01,0.011302989243339225
1659.53,0.012121291150456275
1660.03,0.01309940614951799
1660.54,0.014099224869792848
1661.05,0.014960899668647245
1661.55,0.015550204201061646
1662.06,0.015677813394527354
1662.56,0.015113790672960257
1663.08,0.01412455761454355
1663.58,0.01290917313976317
1664.08,0.011627396849997038
1664.6,0.01055820388684226
1665.1,0.009793294525205935
1665.61,0.009157029653028824
1666.13,0.008595024592878532
1666.62,0.00803590395107219
1667.13,0.007327828270749392
1667.65,0.006619587361523749
1668.15,0.006047266124653307
1668.66,0.005693330686082616
1669.18,0.005689502452981957
1669.67,0.0061063402546358975
1670.18,0.006784893531618218
1670.7,0.007630842516153224
1671.2,0.008562774091401971
1671.71,0.009491823570214594
1672.21,0.010326319059445555
1672.73,0.010982573234279204
1673.23,0.011388826152115965
1673.74,0.011421913910286097
1674.26,0.01097424864409678
1674.76,0.010300916874447086
1675.26,0.009567936496719302
1675.78,0.008929268098961047
1676.28,0.008677654633673138
1676.79,0.008786684793640222
1677.3,0.009031683505307867
1677.79,0.009304777799512403
1678.3,0.009459508241010547
1678.82,0.009290466583264333
1679.32,0.008965596950220934
1679.83,0.008602709036982483
1680.35,0.008278373005374996
1680.84,0.00813581815497772
1681.35,0.008221992407644521
1681.86,0.00841469667683065
1682.37,0.008665313751093076
1682.88,0.008912794982152165
1683.38,0.009033128279786922
1683.9,0.009124819538140256
1684.4,0.009284337376706649
1684.91,0.009566004743633477
1685.43,0.010089252764770133
1685.93,0.0109172305128759
1686.43,0.011807737173112716
1686.95,0.01262087735335197
1687.45,0.013224311421188205
1687.96,0.013389678115922104
1688.48,0.013176411759131694
1688.97,0.01273182627467113
1689.48,0.01214083863497633
1690.0,0.011495738143789038
1690.5,0.010897576490442406
1691.01,0.010418822614116384
1691.51,0.010127501980624221
1692.01,0.010095745801837436
1692.52,0.010450252740526524
1693.03,0.011159059691021395
1693.55,0.012059652129949167
1694.05,0.01304533024633655
1694.55,0.014001910791558358
1695.07,0.014795400783365794
1695.57,0.01538565021512371
1696.08,0.015736422201857666
1696.6,0.015804199755003287
1697.1,0.015500684922082725
1697.6,0.014829363418717892
1698.12,0.013990091077553966
1698.62,0.013108534095107692
1699.13,0.012327459133076344
1699.65,0.01188150571066019
1700.14,0.011682824235518745
1700.65,0.011613169271881562
1701.16,0.011611233332918327
1701.67,0.011549377564734497
1702.18,0.011320098288364328
1702.69,0.011112858133372287
1703.2,0.011012779879548733
1703.7,0.011107049646558375
1704.21,0.011658413893160514
1704.73,0.012477011389200314
1705.23,0.013199962538883584
1705.73,0.013622507122475206
1706.24,0.013410248160117164
1706.74,0.01214270599979771
1707.25,0.010470752405361869
1707.77,0.008848237299440346
1708.27,0.0076002855082948715
1708.77,0.00746963265424583
1709.29,0.008551852196818515
1709.79,0.010129837806746353
1710.3,0.011945431618064543
1710.81,0.01367712479307995
1711.31,0.014684208334277995
1711.82,0.015257838465923369
1712.33,0.015549873315878126
1712.85,0.01562309248604206
1713.35,0.015627175358829824
1713.86,0.01568291393600517
1714.37,0.015647160442042632
1714.87,0.01550746178622322
1715.38,0.015254429320426718
1715.9,0.014843253214089283
1716.4,0.014319194154232552
1716.9,0.013737260789149436
1717.42,0.013139142960369079
1717.92,0.012547081339874505
1718.43,0.01196278971999076
1718.95,0.011552568766763954
1719.45,0.011409112026806754
1719.95,0.011601586236434482
1720.45,0.01236894591990939
1720.96,0.01360202612255598
1721.47,0.014998164920471105
1721.98,0.016393122762590303
1722.49,0.017590290550375583
1722.99,0.0182879378225771
1723.5,0.01860815108599827
1724.02,0.018587830654746035
1724.52,0.018253708332603077
1725.03,0.017629566111168136
1725.54,0.016781088839097007
1726.04,0.015844876301996803
1726.55,0.014929937535120003
1727.07,0.014145633629927835
1727.57,0.013605061530236946
1728.07,0.013378410625283381
1728.59,0.01351798058194434
1729.09,0.014053688100664161
1729.6,0.015109128300372827
1730.11,0.016782433257901408
1730.62,0.018542799530391518
1731.12,0.02012323622487123
1731.63,0.021277571224897283
1732.15,0.021350813392499893
1732.65,0.020592821212636798
1733.16,0.019468784806946336
1733.67,0.018208010400574227
1734.17,0.017140933372406443
1734.68,0.016769692893444873
1735.19,0.01670981989124689
1735.69,0.016843561914415616
1736.2,0.017086758747824404
1736.71,0.017212499376267752
1737.21,0.017185704620658347
1737.72,0.01717640538822991
1738.24,0.01721998069846693
1738.74,0.01736953274755002
1739.24,0.017782137320392646
1739.75,0.018297548402596082
1740.26,0.018816824973179096
1740.77,0.019280798016334436
1741.28,0.019517252698713874
1741.79,0.019437662135392383
1742.29,0.019383903778080958
1742.8,0.019484574390366664
1743.32,0.01986818895089574
1743.82,0.02100055991250536
1744.33,0.022525281684105558
1744.84,0.024054720679014905
1745.34,0.02536914891897312
1745.85,0.026114141868299707
1746.37,0.025845182887126207
1746.87,0.025157161566132444
1747.38,0.024282248905297246
1747.89,0.02342921782202158
1748.39,0.023020549865464594
1748.9,0.023092454939874132
1749.4,0.023474256878795605
1749.91,0.02413018599461403
1750.41,0.025027059363796563
1750.92,0.026216926706584032
1751.43,0.02737401269166743
1751.94,0.028279637949274773
1752.45,0.02877117405265793
1752.97,0.02833649184807598
1753.46,0.02691096479301498
1753.97,0.025381362693881904
1754.49,0.0241127093604499
1754.99,0.02351873883154333
1755.5,0.02482168271195089
1756.01,0.02701916310846555
1756.51,0.029293574075577217
1757.02,0.03115786946956325
1757.54,0.031676035046890656
1758.04,0.02996906413434623
1758.55,0.027590405883153733
1759.05,0.025096397980868514
1759.56,0.023013696271251514
1760.07,0.022810204267071657
1760.58,0.023993614063370253
1761.09,0.025621766280496745
1761.59,0.027294080410895125
1762.1,0.028380542535639295
1762.62,0.027830769516595553
1763.12,0.026748481715508327
1763.63,0.025570591247177813
1764.14,0.024619401241949338
1764.63,0.024785856314780707
1765.14,0.026096189133659048
1765.66,0.027632877371092386
1766.16,0.029063795927544465
1766.67,0.02997948756631605
1767.18,0.029486699580460695
1767.68,0.02822154151712848
1768.19,0.026578880314595477
1768.7,0.024813060499149355
1769.21,0.02333737025517056
1769.72,0.022477856617222788
1770.22,0.022018527788638154
1770.73,0.02197410518857172
1771.24,0.022339930076330547
1771.75,0.023169527990904416
1772.27,0.024312686157445352
1772.76,0.025600961583380107
1773.27,0.026905133715025818
1773.79,0.02802598227172347
1774.29,0.02870719904657772
1774.8,0.029253386838648192
1775.32,0.02977222679318099
1775.81,0.030353122776490337
1776.32,0.031241066477694472
1776.84,0.03239723401945865
1777.34,0.03361875761566834
1777.85,0.03481513719155795
1778.36,0.035900943957634684
1778.85,0.03684358295510265
1779.36,0.03743565668427918
1779.87,0.03754066820434996
1780.38,0.03707421532430232
1780.89,0.03564582968346302
1781.39,0.03325347703950906
1781.91,0.03081665106554162
1782.41,0.028757809500817185
1782.92,0.02753268708516805
1783.44,0.028363743873087953
1783.93,0.03037347575915274
1784.44,0.03280011703623484
1784.96,0.03518829291271964
1785.46,0.0367473081920188
1785.97,0.03667536258541422
1786.49,0.036019706912589225
1786.98,0.03509959454762334
1787.49,0.034220199226934776
1788.01,0.03413984166200971
1788.51,0.03473098654082919
1789.02,0.03561726459177026
1789.52,0.03667637257455612
1790.03,0.03773851253731573
1790.54,0.03856231275929841
1791.05,0.0392013614911972
1791.57,0.03963126308847484
1792.07,0.039828779915270354
1792.57,0.039630264287599616
1793.08,0.03910263369622615
1793.58,0.038597578645466576
1794.09,0.03828183115274291
1794.61,0.03835967011656277
1795.1,0.03943231172415074
1795.61,0.04087198374835689
1796.13,0.04223892750229768
1796.63,0.04324430247328398
1797.14,0.043319230667494525
1797.66,0.042066569215744004
1798.15,0.04032353749827065
1798.66,0.038393151942316614
1799.17,0.03659056978060338
1799.68,0.03557122263492923
1800.19,0.03522443093633742
1800.69,0.03535056774287188
1801.21,0.03588993651236546
1801.71,0.036774771558817004
1802.22,0.03794455350469692
1802.74,0.03914176443489055
