wavelength,flux
1448.26,0.020920698784591994
1448.76,0.02025951767433683
1449.28,0.020516735624849798
1449.78,0.02174642332005565
1450.29,0.023630388127844525
1450.81,0.025671501514866676
1451.3,0.027484067102601418
1451.81,0.028529760453476494
1452.33,0.02826891206058931
1452.83,0.02721308088950802
1453.34,0.02566270789721909
1453.86,0.023869598001289224
1454.35,0.02231660634572116
1454.86,0.021014747360185573
1455.38,0.019742932302859856
1455.89,0.01844764054416919
1456.39,0.016984531035755875
1456.89,0.015156145910588822
1457.41,0.013440775036038115
1457.91,0.012141032568248677
1458.42,0.0115171009337862
1458.94,0.012146423955780142
1459.43,0.013814266917624746
1459.93,0.015793475443233534
1460.45,0.017654354150224635
1460.95,0.018820676060903038
1461.46,0.018589676043031845
1461.98,0.017578959021975756
1462.47,0.016198982926503607
1462.98,0.014752028561106164
1463.5,0.01379715306948262
1464.0,0.013413096606218604
1464.51,0.013248399805442066
1465.03,0.013166601410530394
1465.53,0.013012394878560863
1466.03,0.012568663139029445
1466.54,0.011937250795345043
1467.06,0.011184129357303558
1467.56,0.01033463326778532
1468.06,0.009400636639183982
1468.58,0.008441730706524894
1469.08,0.007568094787691359
1469.59,0.006856016331300078
1470.11,0.006425799325186692
1470.61,0.0064693845973833545
1471.11,0.00673967564405839
1471.63,0.007039738769182741
1472.13,0.007215580743107023
1472.64,0.006909698438627483
1473.16,0.006099583163843492
1473.64,0.005326378549383447
1474.15,0.004864305815434236
1474.67,0.005071869013009086
1475.18,0.006573776993828689
1475.68,0.0087131000303346
1476.19,0.010883664630216904
1476.7,0.012658687667133132
1477.2,0.013321658421860413
1477.71,0.012571627244930847
1478.23,0.011117111089323855
1478.73,0.009311340273647512
1479.23,0.007506480803042926
1479.75,0.0062344934205022995
1480.25,0.005438612038467679
1480.76,0.005027328207745956
1481.28,0.004999211644988654
1481.78,0.005386911600357929
1482.28,0.00614365375550615
1482.8,0.006997200298048258
1483.3,0.007760918328268999
1483.81,0.008209867536462655
1484.33,0.007939083680741681
1484.82,0.0072053427599172585
1485.33,0.006340315623640094
1485.84,0.005552428427328995
1486.36,0.005191884084476588
1486.86,0.0055119341303705455
1487.37,0.006099583789826765
1487.88,0.006748075655916265
1488.37,0.007259220300318602
1488.88,0.007237786184812001
1489.4,0.006849291124411606
1489.9,0.0063779307464880836
1490.4,0.005974953159840301
1490.92,0.005894945921288818
1491.42,0.006363302234133212
1491.93,0.007008309010407263
1492.45,0.007623199987323717
1492.95,0.00802572470462635
1493.45,0.007862471253453334
1493.97,0.007235153809122694
1494.47,0.006415092364706514
1494.98,0.005550528114109461
1495.5,0.00484003198973132
1496.0,0.004497690130621217
1496.5,0.004383352133562685
1497.01,0.004427685271097519
1497.53,0.00458680683720416
1498.03,0.004772892903319493
1498.54,0.004962610803055682
1499.05,0.005169627742056552
1499.55,0.005379014348564371
1500.06,0.005585971021947583
1500.58,0.005797868975844408
1501.08,0.005935983657772071
1501.58,0.005946955403428341
1502.1,0.00578550592371017
1502.59,0.00534705370197693
1503.1,0.004668722389376727
1503.62,0.003918403097827142
1504.12,0.003198524506378842
1504.62,0.0026362550479220506
1505.14,0.0024017164893398724
1505.65,0.0023851321902344028
1506.15,0.0025032610415202626
1506.66,0.0027003319717625552
1507.17,0.002870072032688716
1507.67,0.0029746861749488786
1508.18,0.003086753459711516
1508.7,0.003226379613893653
1509.2,0.0034236022993772266
1509.71,0.003747052478133209
1510.22,0.004100804793403981
1510.72,0.004401304082394456
1511.23,0.004590848453072019
1511.75,0.004559966320404521
1512.25,0.00427661056208451
1512.75,0.00390311389124096
1513.27,0.003530635221713795
1513.77,0.0032506261057123295
1514.28,0.0031971933566256163
1514.8,0.0033406279176600106
1515.31,0.0036323412611979655
1515.8,0.004047206669124902
1516.31,0.004587387996318429
1516.83,0.00522089159254485
1517.32,0.005774118329584907
1517.83,0.006135669512704925
1518.34,0.006176945454032257
1518.84,0.005642527208809147
1519.35,0.004722363878077687
1519.87,0.0036884419382184155
1520.37,0.0027190748887538857
1520.88,0.002080980582087688
1521.39,0.0020066246246913553
1521.89,0.0022330560136217766
1522.4,0.0026255980208755338
1522.92,0.00306778885830506
1523.42,0.0033286005534811313
1523.92,0.0034408484634802796
1524.44,0.0035308788200113556
1524.95,0.003646111564500201
1525.45,0.003875725183301374
1525.96,0.004324347289212555
1526.48,0.004803266995083982
1526.97,0.00519740352660404
1527.48,0.005410710521710076
1528.0,0.005239305180446109
1528.5,0.004736811542173404
1529.01,0.004125685692882715
1529.52,0.0035303862187931784
1530.02,0.0031154676095816996
1530.53,0.003092424379781014
1531.05,0.0032909998979780693
1531.55,0.003594453148364436
1532.05,0.003921471438961155
1532.56,0.0041214219436793344
1533.06,0.004156316372625179
1533.57,0.0041267945003223405
1534.09,0.004068321957281917
1534.6,0.004024576696033102
1535.09,0.00407188616245656
1535.6,0.004147746111478829
1536.12,0.004202457615721183
1536.62,0.0042062396487806955
1537.13,0.0040994491364916156
1537.65,0.0038670883614222414
1538.14,0.0035926449135098904
1538.65,0.0033210727901221457
1539.17,0.0030991267287639665
1539.67,0.002998627499347511
1540.18,0.0029949395505042453
1540.69,0.0030569557459106354
1541.19,0.003168104633244772
1541.7,0.003312582640446314
1542.22,0.0034701094634566427
1542.72,0.0036085452825969097
1543.23,0.003705004390905807
1543.74,0.0037273632037535653
1544.25,0.0036017500522601566
1544.75,0.0033967282589832293
1545.26,0.003203679405611071
1545.78,0.003080596461921547
1546.26,0.003131679103746732
1546.77,0.00344368086312972
1547.29,0.0038358752046621187
1547.79,0.004202431618372673
1548.3,0.004446639802523657
1548.82,0.004382467027743154
1549.31,0.004059221586050653
1549.82,0.0036229428499650446
1550.34,0.0031531366116554177
1550.84,0.0027560663004615547
1551.35,0.0025532929094180417
1551.86,0.002467184268827083
1552.36,0.002456972989700587
1552.87,0.002498463684110522
1553.39,0.002543385522044237
1553.89,0.0025784736350581913
1554.4,0.0026192430160692256
1554.9,0.002664377950998232
1555.42,0.0027122269756758963
1555.92,0.0027647415703677273
1556.43,0.0028133011798679914
1556.95,0.0028522119276513974
1557.44,0.002877629497073065
1557.95,0.0028796214834705823
1558.47,0.002860583746391773
1558.97,0.0028418089185529324
1559.48,0.002835928278449358
1560.0,0.002857342534474348
1560.49,0.0029276633720453126
1560.99,0.0030326457740901306
1561.51,0.003157228628133547
1562.01,0.0032909291904285273
1562.52,0.0034223963523138962
1563.03,0.0035396818331111103
1563.53,0.003631069641928125
1564.04,0.0036864682074087282
1564.55,0.0036952558501879757
1565.07,0.003642440182373716
1565.57,0.00353729278754192
1566.07,0.0033943168285284135
1566.59,0.003225189037660398
1567.09,0.003038566544028793
1567.6,0.002845954902740765
1568.12,0.0026783097087029893
1568.61,0.00255810401175861
1569.12,0.0025072395945048877
1569.64,0.002561118708665355
1570.14,0.0027060263409382176
1570.65,0.0029087354644634265
1571.17,0.0031455990226716313
1571.66,0.0034003351534159674
1572.17,0.003658239320652291
1572.69,0.00385806162303128
1573.19,0.00395826593062567
1573.7,0.003916037721841744
1574.2,0.0036201470290057707
1574.72,0.00312692737559118
1575.21,0.0026129674351848564
1575.72,0.0021819558519599112
1576.24,0.001981212429726009
1576.74,0.002218163163586318
1577.24,0.002670302305613795
1577.76,0.0031716097125829797
1578.26,0.003598459953126977
1578.77,0.0037034897962910577
1579.29,0.003440841995418425
1579.78,0.0030845572118562707
1580.29,0.0027635746582507625
1580.81,0.0026369019089713514
1581.31,0.0029856008226435307
1581.82,0.0035772130594046163
1582.34,0.004189163922606005
1582.83,0.004678375495635603
1583.34,0.004796181870167886
1583.85,0.004409754508130362
1584.37,0.0038037417272024847
1584.87,0.0031206073014161716
1585.37,0.002500517117148783
1585.89,0.002187886430633328
1586.39,0.002117820933484624
1586.9,0.0021777248942911175
1587.42,0.0023169037002493845
1587.92,0.0024494185842135266
1588.42,0.0024933836183355386
1588.94,0.0025319161716062175
1589.44,0.002597071328066706
1589.94,0.002713470627902253
1590.46,0.0029584407876284114
1590.95,0.003278819271155085
1591.46,0.0035710475275249373
1591.98,0.003775988928044505
1592.48,0.003803282071859786
1592.99,0.003547123388969713
1593.5,0.0031594935091767457
1594.01,0.002742544720933371
1594.51,0.002379282884340834
1595.02,0.0022218957003766063
1595.54,0.002282078348518256
1596.04,0.002440241958732102
1596.54,0.0026396365156903853
1597.06,0.0028148070626940413
1597.56,0.00287337819750928
1598.07,0.0028469709899953248
1598.59,0.0027582086692750874
1599.09,0.0026145279014371907
1599.59,0.002427698343012905
1600.11,0.002213013495711156
1600.61,0.001987902372669853
1601.12,0.0017702870650026868
1601.64,0.00157946868822307
1602.13,0.001437607638374438
1602.64,0.001349031465848266
1603.15,0.0013141771113772754
1603.67,0.0013343889489931266
1604.17,0.001421201597563853
1604.67,0.0015750262836094471
1605.18,0.0017407835927498298
1605.68,0.0018841974372601
1606.19,0.001966778188481826
1606.71,0.0019089443290459958
1607.21,0.001756387665726397
1607.71,0.0015861400579983574
1608.23,0.0014434397323951304
1608.73,0.0014058630278032248
1609.24,0.0015537250683154552
1609.76,0.0017620257381249947
1610.26,0.0019582025677227053
1610.76,0.002079705535939794
1611.28,0.001986250554168504
1611.78,0.0017153713178780078
1612.29,0.0014178837012359022
1612.8,0.001174014872899664
1613.31,0.001092782452160626
1613.81,0.0013222423404603888
1614.32,0.0017185980730126083
1614.84,0.0021759012630919476
1615.34,0.0026182614120192414
1615.85,0.002916924510759043
1616.36,0.0030258225609328033
1616.86,0.0030297754531464177
1617.37,0.0029613371198919606
1617.89,0.0028520647925170256
1618.39,0.0027512293364242526
1618.88,0.0026612746378985542
1619.4,0.002584267872166791
1619.9,0.002530678256038855
1620.41,0.0025248582970969144
1620.93,0.0025748226789007555
1621.43,0.002628413819253804
1621.93,0.002658605747462759
1622.44,0.002628802244052858
1622.95,0.0024470156081391227
1623.46,0.0021950054531882147
1623.97,0.0019814120678945763
1624.48,0.0018713616867699835
1624.98,0.00198925130179091
1625.49,0.002446112945127223
1626.01,0.002995878201264295
1626.51,0.003492207362070081
1627.02,0.0038014858416110125
1627.53,0.003648291111410324
1628.03,0.0031089397477044593
1628.54,0.0024438953109640438
1629.06,0.00179487764569083
1629.56,0.0013525848133950475
1630.06,0.0013592816031169615
1630.58,0.0016152423875534273
1631.08,0.0019860128673076976
1631.59,0.002380655543482291
1632.11,0.0026461253237091737
1632.61,0.002724111494552893
1633.11,0.002685721129312842
1633.61,0.0025504130449777347
1634.13,0.002328526622088504
1634.63,0.002029868204314505
1635.14,0.0017116497184302502
1635.65,0.0014282508568915133
1636.15,0.0012278617094013799
1636.66,0.001190455854337989
1637.18,0.0013534596597084506
1637.68,0.0016181277683351444
1638.19,0.0019299482631740365
1638.7,0.0022346096449558607
1639.2,0.0024456641258709336
1639.71,0.0025697570873985214
1640.23,0.0026300206743383437
1640.73,0.0026321826916177226
1641.23,0.002582813394526585
1641.75,0.0024926722162079825
1642.25,0.0023823423998588183
1642.76,0.0022702214793047424
1643.27,0.002176438442865139
1643.79,0.0021342903876239386
1644.28,0.0021404684696643707
1644.79,0.0021730153769553453
1645.31,0.002220170254263345
1645.81,0.0022691265964366624
1646.32,0.0023051080389577287
1646.84,0.002323076667104904
1647.33,0.002318321133324599
1647.83,0.0022851237698642475
1648.35,0.0022090844699623182
1648.85,0.0020973025136566876
1649.36,0.0019831529173846745
1649.87,0.0018889752662833012
1650.37,0.0018354599343062053
1650.88,0.0018437979203638787
1651.4,0.0019254958656812497
1651.9,0.002086728587878773
1652.41,0.0023329743134106176
1652.91,0.002695801265156324
1653.43,0.003171736803594111
1653.93,0.003644732258081823
1654.44,0.004044965188297528
1654.96,0.0042954492386306645
1655.45,0.004253788137638513
1655.96,0.004003763229882913
1656.48,0.003667907393204202
1656.98,0.003322609423460059
1657.49,0.0030742941716512553
1658.01,0.0030233951857678637
1658.5,0.0030983648573144887
1659.01,0.003265051174376296
1659.53,0.0035021684073087487
1660.03,0.0037855356108733966
1660.54,0.00407530330863864
1661.05,0.00432524798958654
1661.55,0.004496513542792434
1662.06,0.0045343304961800324
1662.56,0.004372067650109487
1663.08,0.004086741512294247
1663.58,0.00373581881849353
1664.08,0.00336553866798808
1664.6,0.003056679147004225
1665.1,0.002835780485024825
1665.61,0.0026520622347337326
1666.13,0.002489790482075696
1666.62,0.002328260959738143
1667.13,0.0021235201886026464
1667.65,0.0019186576554262153
1668.15,0.001753103127984218
1668.66,0.001650812970440254
1669.18,0.0016500233030789016
1669.67,0.0017712338216608863
1670.18,0.001968429682785671
1670.7,0.0022142800911992473
1671.2,0.002485159014088071
1671.71,0.002755308353757558
1672.21,0.002998092307009951
1672.73,0.0031892256865347413
1673.23,0.0033077927171506452
1673.74,0.003318009134786945
1674.26,0.0031885558946193873
1674.76,0.0029934513269698248
1675.26,0.0027809381067296505
1675.78,0.002595782557694929
1676.28,0.0025230786910961766
1676.79,0.0025552336475506312
1677.3,0.0026269453770213793
1677.79,0.0027068347105449514
1678.3,0.0027523288138285025
1678.82,0.002703624747914617
1679.32,0.0026095276012436867
1679.83,0.002504337275528202
1680.35,0.0024103413740815325
1680.84,0.0023692235319212273
1681.35,0.002394725034244616
1681.86,0.0024512660491221626
1682.37,0.0025246972160448034
1682.88,0.002597236950851068
1683.38,0.002632732230144168
1683.9,0.002659904852606056
1684.4,0.0027068416244188896
1684.91,0.0027894184373735663
1685.43,0.0029424847818939194
1685.93,0.0031844666459902916
1686.43,0.003444764512174984
1686.95,0.0036825902772452943
1687.45,0.0038592669106205435
1687.96,0.0039081458066265165
1688.48,0.0038465166041971245
1688.97,0.003717291329560563
1689.48,0.0035452945261922014
1690.0,0.003357447032742953
1690.5,0.0031832290670314282
1691.01,0.0030438496946767787
1691.51,0.0029591829248592767
1692.01,0.0029503424711869054
1692.52,0.003054402583141875
1693.03,0.0032620616294271004
1693.55,0.003525861911002225
1694.05,0.003814596809070914
1694.55,0.004094902301130589
1695.07,0.004327606498625377
1695.57,0.004500894655952115
1696.08,0.00460417548536258
1696.6,0.0046246848930333795
1697.1,0.004536506268401666
1697.6,0.0043406403743712265
1698.12,0.0040955722981679205
1698.62,0.0038380285396926294
1699.13,0.0036098447905827183
1699.65,0.003479751043244762
1700.14,0.0034220187845110605
1700.65,0.0034020852153884
1701.16,0.003401984507927434
1701.67,0.003384322709118848
1702.18,0.003317586518967249
1702.69,0.0032572895177902764
1703.2,0.003228388128779259
1703.7,0.0032564485089420555
1704.21,0.0034185543378917314
1704.73,0.00365907979386039
1705.23,0.003871593213623698
1705.73,0.003996036503686626
1706.24,0.003934280915982897
1706.74,0.0035628598879191243
1707.25,0.0030726749352786567
1707.77,0.002596878812551608
1708.27,0.0022308918700407955
1708.77,0.002192811071818013
1709.29,0.0025108299062091364
1709.79,0.0029744883361548405
1710.3,0.0035080437683750873
1710.81,0.004017084738430918
1711.31,0.0043133864148022895
1711.82,0.004482426427410706
1712.33,0.004568766758091608
1712.85,0.004590835853582833
1713.35,0.004592567022690146
1713.86,0.004609487966204917
1714.37,0.004599514731117317
1714.87,0.004558966612292337
1715.38,0.004485093487480215
1715.9,0.004364706863053088
1716.4,0.004211072513299023
1716.9,0.004040378907228115
1717.42,0.0038649007329923687
1717.92,0.0036911451136284828
1718.43,0.0035196425316249198
1718.95,0.003399326602290198
1719.45,0.003357470490269584
1719.95,0.003414470852864627
1720.45,0.0036406929522115102
1720.96,0.004004062380033106
1721.47,0.0044155098171141
1721.98,0.004826691611176627
1722.49,0.005179712251939466
1722.99,0.0053856841561943725
1723.5,0.005480540522841665
1724.02,0.005475116721847382
1724.52,0.005377225004530077
1725.03,0.005193876659554808
1725.54,0.0049443895002425076
1726.04,0.004668987635977526
1726.55,0.004399807208677066
1727.07,0.004169080471484017
1727.57,0.004010131403300923
1728.07,0.00394368729940385
1728.59,0.003985206515044871
1729.09,0.0041435104118596276
1729.6,0.004455095796494116
1730.11,0.004948934410414545
1730.62,0.005468532784083602
1731.12,0.005935139851878123
1731.63,0.006276147901884162
1732.15,0.006298307690232677
1732.65,0.0060752167256673964
1733.16,0.005744094740800629
1733.67,0.005372564973008334
1734.17,0.005058118402257216
1734.68,0.004948975392773377
1735.19,0.004931706500499042
1735.69,0.00497157032393753
1736.2,0.0050437531954552065
1736.71,0.005081268832005329
1737.21,0.005073744819112207
1737.72,0.0050713883701027996
1738.24,0.005084646960591639
1738.74,0.00512918251984983
1739.24,0.005251404446407368
1739.75,0.005404009901540173
1740.26,0.005557774209133915
1740.77,0.0056952196594397125
1741.28,0.005765469464826404
1741.79,0.005742356263965376
1742.29,0.005726858847763838
1742.8,0.005756989899589871
1743.32,0.005870732484583049
1743.82,0.006205729137392685
1744.33,0.0066567195271912405
1744.84,0.007109155649412861
1745.34,0.007498084617637299
1745.85,0.0077187515167772055
1746.37,0.0076397276075052655
1746.87,0.007436788389804925
1747.38,0.007178576152496039
1747.89,0.006926796036689926
1748.39,0.00680635517736301
1748.9,0.006827998202607534
1749.4,0.006941265229978748
1749.91,0.007135608326107967
1750.41,0.007401211843814138
1750.92,0.007753494879149098
1751.43,0.008096111467939503
1751.94,0.008364379444322494
1752.45,0.008510183148000785
1752.97,0.008382022604164105
1753.46,0.007960709840207561
1753.97,0.007508576855232072
1754.49,0.007133601241048705
1754.99,0.006958181837641834
1755.5,0.007343986041554833
1756.01,0.007994493653444536
1756.51,0.00866780426395294
1757.02,0.009219812168660685
1757.54,0.00937351801144317
1758.04,0.008868728659095009
1758.55,0.00816511965922789
1759.05,0.007427307244474383
1759.56,0.006811170970792199
1760.07,0.00675117780915346
1760.58,0.007101671284272161
1761.09,0.00758382049420079
1761.59,0.008079059776939143
1762.1,0.008400908414484674
1762.62,0.008238417040679364
1763.12,0.00791825997832548
1763.63,0.007569779878833823
1764.14,0.007288386210808821
1764.63,0.0073378420240922315
1765.14,0.007725952735522255
1765.66,0.008181093032476246
1766.16,0.008604922893391407
1766.67,0.008876219161080444
1767.18,0.008730491307356066
1767.68,0.00835605604567876
1768.19,0.007869825349813935
1768.7,0.007347102327092517
1769.21,0.0069102625920225876
1769.72,0.006655856493804861
1770.22,0.006519933614145453
1770.73,0.006506861991486419
1771.24,0.006615264918499831
1771.75,0.006860996318624822
1772.27,0.007199579311508425
1772.76,0.007581129996221458
1773.27,0.007967388448815614
1773.79,0.008299356648384385
1774.29,0.008501128578049917
1774.8,0.008662907405908396
1775.32,0.00881657967225396
1775.81,0.008988618913224243
1776.32,0.00925157717835525
1776.84,0.009593955678465825
1777.34,0.009955677507506379
1777.85,0.01030994071675412
1778.36,0.010631446060307297
1778.85,0.010910542672789111
1779.36,0.01108580964310628
1779.87,0.011116829397754513
1780.38,0.010978611189786122
1780.89,0.010555533074978198
1781.39,0.009847004030386254
1781.91,0.0091253058243557
1782.41,0.008515544777420878
1782.92,0.008152659146969082
1783.44,0.008398614898629128
1783.93,0.008993566296330763
1784.44,0.009711927161688021
1784.96,0.010418858483547061
1785.46,0.010880258443537724
1785.97,0.0108587334908057
1786.49,0.010664372830352091
1786.98,0.010391726498010128
1787.49,0.010131126110555451
1788.01,0.010107076322418742
1788.51,0.010281818878515741
1789.02,0.010543904206174945
1789.52,0.010857130655561327
1790.03,0.011171217735388718
1790.54,0.011414722259941291
1791.05,0.01160351189290297
1791.57,0.011730362583872927
1792.07,0.011788425662971313
1792.57,0.01172925861984083
1793.08,0.011572670099957817
1793.58,0.011422769250728814
1794.09,0.011328880241831459
1794.61,0.011351446677934245
1795.1,0.011668396866412484
1795.61,0.01209389099242052
