wavelength,flux
1448.26,0.012167137062749182
1448.76,0.01178397894655644
1449.28,0.01193503308520016
1449.78,0.01265183558378407
1450.29,0.01374952661574772
1450.81,0.014938954202415389
1451.3,0.015995536444570684
1451.81,0.016606062321446163
1452.33,0.016456186412212293
1452.83,0.01584335843250053
1453.34,0.014942466275520086
1453.86,0.013900038582455471
1454.35,0.012997117882819067
1454.86,0.01224032342779829
1455.38,0.011500878413702155
1455.89,0.010747555410179872
1456.39,0.009896253631594201
1456.89,0.008831902840074962
1457.41,0.007833211304134287
1457.91,0.0070765097259082544
1458.42,0.006713599379319608
1458.94,0.007081255309818953
1459.43,0.008054456264711837
1459.93,0.009209445255160573
1460.45,0.010295719843951775
1460.95,0.010977089092706283
1461.46,0.010843554689055675
1461.98,0.010255141983226551
1462.47,0.0094510921034421
1462.98,0.008607825207851175
1463.5,0.0080515483472361
1464.0,0.007828259349989104
1464.51,0.00773297470927013
1465.03,0.007686075336700904
1465.53,0.00759685763212456
1466.03,0.007338571111825662
1466.54,0.006970648387626197
1467.06,0.006531579858497982
1467.56,0.006036099293353452
1468.06,0.005491154716535215
1468.58,0.00493156402937603
1469.08,0.004421652167336976
1469.59,0.004006041491089543
1470.11,0.0037550618413726973
1470.61,0.0037809185407045023
1471.11,0.00393928703617584
1471.63,0.004115106535894808
1472.13,0.004218323052299343
1472.64,0.0040399164844602525
1473.16,0.003566637180595201
1473.64,0.003114817885953422
1474.15,0.0028448923599608293
1474.67,0.0029665936382315726
1475.18,0.0038454667249011917
1475.68,0.005097413344020903
1476.19,0.006367897861413383
1476.7,0.007407186369792587
1477.2,0.007795887123690244
1477.71,0.007357700802834641
1478.23,0.006507087752520783
1478.73,0.005450661063523561
1479.23,0.004394560918501779
1479.75,0.0036502613569149097
1480.25,0.0031845842040442583
1480.76,0.002944045158054343
1481.28,0.0029278715502462386
1481.78,0.003155235779447592
1482.28,0.0035988193390105055
1482.8,0.004099212973101933
1483.3,0.004547056740889631
1483.81,0.0048105550045219065
1484.33,0.004652344559734478
1484.82,0.004222756311527241
1485.33,0.0037161534047002814
1485.84,0.003254670104549942
1486.36,0.0030436234201732994
1486.86,0.0032315444328187594
1487.37,0.003576408942194552
1487.88,0.003957014495019166
1488.37,0.004257127747741795
1488.88,0.004244953416912886
1489.4,0.004017481996855722
1489.9,0.0037413431064195466
1490.4,0.003505270558070536
1490.92,0.00345865790411927
1491.42,0.0037337856641104206
1491.93,0.004112631329896982
1492.45,0.004473878669196704
1492.95,0.004710530521911424
1493.45,0.00461512200845518
1493.97,0.00424728936155867
1494.47,0.0037662166587217527
1494.98,0.003258934550821433
1495.5,0.0028420331776873135
1496.0,0.0026412431084352453
1496.5,0.0025743229000209566
1497.01,0.00260058975888145
1497.53,0.0026942917898717727
1498.03,0.002803840550918042
1498.54,0.0029155460937199404
1499.05,0.003037434452794688
1499.55,0.0031607302304756052
1500.06,0.0032826237643538573
1500.58,0.0034074472646698677
1501.08,0.003488913198346762
1501.58,0.0034956565243937083
1502.1,0.003401052663893036
1502.59,0.0031435632109046963
1503.1,0.0027450020615571603
1503.62,0.0023040468590209318
1504.12,0.0018809094426051503
1504.62,0.0015503920041318407
1505.14,0.001412579954713043
1505.65,0.0014029433001637884
1506.15,0.0014725476006302563
1506.66,0.001588607060535076
1507.17,0.0016886052481280345
1507.67,0.0017502967192696889
1508.18,0.0018163863870383997
1508.7,0.0018987076903826947
1509.2,0.0020149338315250762
1509.71,0.002205477690721057
1510.22,0.0024138889438352702
1510.72,0.002590979950342576
1511.23,0.002702779995094224
1511.75,0.002684818933009594
1512.25,0.0025181825665614535
1512.75,0.0022984378346119242
1513.27,0.0020792641149115078
1513.77,0.0019145099487333558
1514.28,0.0018831888352797282
1514.8,0.001967831866228978
1515.31,0.0021398368005462348
1515.8,0.002384416222310194
1516.31,0.002702875599623178
1516.83,0.0030763780432957423
1517.32,0.0034026168944148783
1517.83,0.0036159539217162345
1518.34,0.003640559506483232
1518.84,0.003325835021447444
1519.35,0.002783682510814934
1519.87,0.002174387536426696
1520.37,0.0016030516077604013
1520.88,0.001226951039784839
1521.39,0.0011831998321911316
1521.89,0.0013168114167522818
1522.4,0.0015484056055967029
1522.92,0.0018093184768877102
1523.42,0.001963282997481451
1523.92,0.002029636828760473
1524.44,0.0020828994862543975
1524.95,0.0021510347311713444
1525.45,0.002286660439676892
1525.96,0.0025515319821170323
1526.48,0.0028343236137741007
1526.97,0.00306711056898602
1527.48,0.0031932190477245346
1528.0,0.003092288645183891
1528.5,0.002795908906631633
1529.01,0.0024353654139064825
1529.52,0.0020841126399250187
1530.02,0.0018392995641740783
1530.53,0.0018258246722657097
1531.05,0.0019432071381176297
1531.55,0.0021225307544119314
1532.05,0.0023157946791916018
1532.56,0.0024340438281537035
1533.06,0.0024548193165565397
1533.57,0.0024375519527044696
1534.09,0.002403183504796676
1534.6,0.0023775064960554555
1535.09,0.00240561289156743
1535.6,0.0024505973047219483
1536.12,0.002483094634572124
1536.62,0.002485494578109283
1537.13,0.002422555070699823
1537.65,0.002285399170600047
1538.14,0.002123343496616811
1538.65,0.0019629687464401604
1539.17,0.001831908655129751
1539.67,0.0017726183787059794
1540.18,0.0017705553110756362
1540.69,0.001807337216401186
1541.19,0.0018731713004060749
1541.7,0.001958723313604466
1542.22,0.0020520048629635353
1542.72,0.0021340028626051595
1543.23,0.0021911879975993844
1543.74,0.0022045532665690773
1544.25,0.002130395906208195
1544.75,0.0020092536609112254
1545.26,0.001895180896512574
1545.78,0.0018224873559942183
1546.26,0.0018528181648434798
1546.77,0.0020375383399439616
1547.29,0.0022697349109442617
1547.79,0.002486783223647651
1548.3,0.00263145688748978
1548.82,0.0025936443456552804
1549.31,0.0024024828719308266
1549.82,0.002144399758366989
1550.34,0.001866440701975483
1550.84,0.001631499962768477
1551.35,0.0015115567688101575
1551.86,0.0014606687010324897
1552.36,0.0014547093005694127
1552.87,0.0014793637887318275
1553.39,0.0015060543799148237
1553.89,0.0015269209345655731
1554.4,0.001551155908021425
1554.9,0.0015779770591667335
1555.42,0.0016064121731876612
1555.92,0.0016376100523630178
1556.43,0.001666470300580736
1556.95,0.0016896195729542794
1557.44,0.001704771681690999
1557.95,0.001706050355775758
1558.47,0.001694870770313709
1558.97,0.001683841463576941
1559.48,0.0016804529656831684
1560.0,0.0016932403080237362
1560.49,0.0017350063054961684
1560.99,0.001797320866706777
1561.51,0.001871263012291675
1562.01,0.0019506131822126615
1562.52,0.0020286499484151884
1563.03,0.00209828815860048
1563.53,0.0021525785333023095
1564.04,0.002185540277289922
1564.55,0.0021908701108470626
1565.07,0.0021596765134027974
1565.57,0.002097444213721109
1566.07,0.002012773124757238
1566.59,0.0019125882379511677
1567.09,0.0018020129209330874
1567.6,0.001687875327755005
1568.12,0.0015885346853626032
1568.61,0.0015173165945934013
1569.12,0.0014872252640681356
1569.64,0.001519266217869919
1570.14,0.0016053083214630436
1570.65,0.0017256522257513473
1571.17,0.0018662738297851977
1571.66,0.002017508009669997
1572.17,0.0021706408711736043
1572.69,0.0022893262080974997
1573.19,0.0023489035174198702
1573.7,0.0023239624339115427
1574.2,0.002148473230286781
1574.72,0.001855853939619702
1575.21,0.0015508895864264649
1575.72,0.0012951333388249203
1576.24,0.0011760384831074689
1576.74,0.0013167550829080714
1577.24,0.0015852321717387385
1577.76,0.001882928620166798
1578.26,0.0021364440982212874
1578.77,0.0021989080721673345
1579.29,0.0020430642574403193
1579.78,0.001831598063045974
1580.29,0.0016410783680723367
1580.81,0.0015659329969117204
1581.31,0.0017730913824701919
1581.82,0.002124538812981259
1582.34,0.0024881009901977598
1582.83,0.0027787867686483725
1583.34,0.0028488920125786443
1583.85,0.0026194786308473906
1584.37,0.0022596015600159954
1584.87,0.0018538708897905963
1585.37,0.0014855580405336499
1585.89,0.001299884228868923
1586.39,0.0012583121120049007
1586.9,0.0012939624889448313
1587.42,0.0013767226880355607
1587.92,0.0014555276330445938
1588.42,0.0014817175215104817
1588.94,0.0015046835167934864
1589.44,0.001543470738069276
1589.94,0.0016127172755768379
1590.46,0.0017583901086582426
1590.95,0.0019488924219666776
1591.46,0.0021226808347545385
1591.98,0.002244598818060334
1592.48,0.0022609173236291086
1592.99,0.0021087293254780258
1593.5,0.001878366400279507
1594.01,0.0016305524338414204
1594.51,0.0014146365997893505
1595.02,0.0013211146194482793
1595.54,0.0013569556606599135
1596.04,0.0014510603591226404
1596.54,0.0015696907745096035
1597.06,0.001673927331392028
1597.56,0.0017088264848881744
1598.07,0.0016931899150791879
1598.59,0.0016404668276830436
1599.09,0.0015550721510878569
1599.59,0.0014440054223874208
1600.11,0.0013163627415960376
1600.61,0.0011825056547176437
1601.12,0.0010530979455005355
1601.64,0.0009396220941599137
1602.13,0.0008552609114022881
1602.64,0.0008025959197833803
1603.15,0.0007818893346802554
1603.67,0.0007939452902457821
1604.17,0.0008456289472085733
1604.67,0.000937190513240755
1605.18,0.0010358598805302334
1605.68,0.0011212394754516505
1606.19,0.0011704242707959041
1606.71,0.001136049829184313
1607.21,0.0010452976261160804
1607.71,0.0009440097875766
1608.23,0.000859111470488614
1608.73,0.0008367757140733095
1609.24,0.0009248166438157235
1609.76,0.0010488402013244008
1610.26,0.0011656538815500081
1610.76,0.0012380228999547163
1611.28,0.001182432046270794
1611.78,0.0010212097515408718
1612.29,0.0008441357028817705
1612.8,0.0006989723793927997
1613.31,0.0006506310600783757
1613.81,0.00078727493586278
1614.32,0.0010233028066796305
1614.84,0.001295638058740517
1615.34,0.0015590912346103167
1615.85,0.0017369923874539456
1616.36,0.0018018983580291583
1616.86,0.0018043094186697324
1617.37,0.0017636091666314046
1617.89,0.0016985877406635076
1618.39,0.0016385845623437915
1618.88,0.0015850569534799188
1619.4,0.001539240653953728
1619.9,0.0015073674334040996
1620.41,0.0015039471442379727
1620.93,0.001533756534617227
1621.43,0.0015657260118590035
1621.93,0.0015837579184221663
1622.44,0.0015660505511179167
1622.95,0.0014577985246179803
1623.46,0.0013077031940880806
1623.97,0.0011804867204066496
1624.48,0.001114953266517957
1624.98,0.0011852251868002372
1625.49,0.0014574718360861967
1626.01,0.0017850912076495759
1626.51,0.00208088604978647
1627.02,0.0022652378934161204
1627.53,0.00217401230723374
1628.03,0.0018526635801409774
1628.54,0.001456393545041445
1629.06,0.0010696532665793147
1629.56,0.0008060911482275442
1630.06,0.0008101034225514658
1630.58,0.000962676729794923
1631.08,0.001183684686914039
1631.59,0.0014189329223390018
1632.11,0.001577201461828437
1632.61,0.0016237253351388686
1633.11,0.0016008824409440342
1633.61,0.0015202667382012251
1634.13,0.0013880386604328825
1634.63,0.0012100373071188804
1635.14,0.0010203672152833336
1635.65,0.0008514451711753942
1636.15,0.0007320014508230655
1636.66,0.0007097185985406226
1637.18,0.0008069167314406445
1637.68,0.0009647309975814666
1638.19,0.0011506658244843572
1638.7,0.0013323405577462101
1639.2,0.0014582102181620589
1639.71,0.0015322345229522
1640.23,0.0015682029867625212
1640.73,0.0015695263545398577
1641.23,0.001540121532367164
1641.75,0.0014864037579924556
1642.25,0.0014206431361611766
1642.76,0.0013538119153054659
1643.27,0.001297913306303046
1643.79,0.0012728056114823046
1644.28,0.0012765154030946117
1644.79,0.001295952062528178
1645.31,0.001324101898431306
1645.81,0.001353325944096331
1646.32,0.0013748128965487966
1646.84,0.0013855575140473227
1647.33,0.0013827469862283926
1647.83,0.001362972336844848
1648.35,0.0013176438960571584
1648.85,0.0012509928037652289
1649.36,0.0011829271671501243
1649.87,0.001126772005245419
1650.37,0.0010948696364220104
1650.88,0.001099863046171573
1651.4,0.0011486182764491695
1651.9,0.0012448199655715013
1652.41,0.0013917397749273013
1652.91,0.0016082117036428348
1653.43,0.0018921690928378606
1653.93,0.002174380329247441
1654.44,0.002413191533337558
1654.96,0.0025626704558274387
1655.45,0.0025378543221537394
1655.96,0.0023887244833118103
1656.48,0.002188380887198003
1656.98,0.0019823957692830236
1657.49,0.0018342690830239767
1658.01,0.0018039276948788924
1658.5,0.0018486848440942463
1659.01,0.0019481688038062701
1659.53,0.0020896806046840914
1660.03,0.002258791680341855
1660.54,0.0024317266943245388
1661.05,0.0025809032457156144
1661.55,0.002683133573385601
1662.06,0.0027057349687637944
1662.56,0.002608942130983705
1663.08,0.002438711090915049
1663.58,0.00222932964058497
1664.08,0.0020083910508422584
1664.6,0.0018241009297259698
1665.1,0.0016922972094958314
1665.61,0.0015826787189382693
1666.13,0.0014858565233400569
1666.62,0.0013894738194204248
1667.13,0.0012673011818079255
1667.65,0.0011450531940596614
1668.15,0.001046261116005376
1668.66,0.00098522389032096
1669.18,0.0009847626481888732
1669.67,0.0010571131269547687
1670.18,0.0011748153839771724
1670.7,0.001321558540507034
1671.2,0.0014832416383453292
1671.71,0.001644492099521609
1672.21,0.0017894116798724364
1672.73,0.001903506014839579
1673.23,0.0019742892427520374
1673.74,0.0019804028129018257
1674.26,0.0019031517675184698
1674.76,0.0017867129754248659
1675.26,0.0016598812558160825
1675.78,0.0015493771181514493
1676.28,0.0015059915551677624
1676.79,0.00152519450300809
1677.3,0.0015680085613738184
1677.79,0.0016157036091339865
1678.3,0.0016428686912029178
1678.82,0.0016138065570306867
1679.32,0.0015576478802170558
1679.83,0.0014948667773717313
1680.35,0.0014387669335933697
1680.84,0.001414229612975247
1681.35,0.0014294584077417117
1681.86,0.0014632151818083459
1682.37,0.0015070540494629397
1682.88,0.0015503607963695475
1683.38,0.001571554484077949
1683.9,0.0015877801184847815
1684.4,0.0016158031584820854
1684.91,0.0016651008748100745
1685.43,0.0017564763355931302
1685.93,0.0019009287203375063
1686.43,0.0020563148821372184
1686.95,0.0021982868853589626
1687.45,0.002303756295341624
1687.96,0.002332937712075336
1688.48,0.0022961516658513087
1688.97,0.0022190137905976166
1689.48,0.002116343133161909
1690.0,0.0020042098633455204
1690.5,0.0019002120503362305
1691.01,0.001817010474949251
1691.51,0.0017664688793363646
1692.01,0.0017611910125404707
1692.52,0.0018233080663110136
1693.03,0.001947267334229928
1693.55,0.0021047389775102113
1694.05,0.0022770943698791914
1694.55,0.0024444168939064715
1695.07,0.0025833229817339527
1695.57,0.002686760375732566
1696.08,0.0027484065966136705
1696.6,0.002760642485513422
1697.1,0.002707998292171957
1697.6,0.002591071699508357
1698.12,0.0024447745970663116
1698.62,0.0022910311007458654
1699.13,0.002154813774454425
1699.65,0.002077149146077976
1700.14,0.0020426793233647377
1700.65,0.0020307717723327123
1701.16,0.0020307024229528955
1701.67,0.0020201501326003457
1702.18,0.0019803044174279342
1702.69,0.001944302246949503
1703.2,0.001927040192317952
1703.7,0.001943778651635492
1704.21,0.0020405276780988838
1704.73,0.0021840829842133835
1705.23,0.0023109163812225163
1705.73,0.002385179751994304
1706.24,0.002348302436621735
1706.74,0.0021265928959667
1707.25,0.0018339986861951576
1707.77,0.0015499964425976793
1708.27,0.0013315398902934497
1708.77,0.0013088003927090178
1709.29,0.0014986002057963573
1709.79,0.0017753218456180218
1710.3,0.0020937555848112477
1710.81,0.0023975519055018206
1711.31,0.0025743726332271713
1711.82,0.0026752356693206334
1712.33,0.002726739114739118
1712.85,0.0027398822236015196
1713.35,0.0027408876090974634
1713.86,0.002750957042438495
1714.37,0.0027449752108956835
1714.87,0.0027207466297691956
1715.38,0.0026766295022394174
1715.9,0.002604753945035466
1716.4,0.0025130393828681204
1716.9,0.002411146037375418
1717.42,0.0023063981980143864
1717.92,0.0022026814432245453
1718.43,0.0021003106777976567
1718.95,0.00202848621559824
1719.45,0.0020034830403838485
1719.95,0.002037469265161349
1720.45,0.00217242999873849
1720.96,0.002389221556101013
1721.47,0.002634693998706817
1721.98,0.0028800001031894684
1722.49,0.003090594987836421
1722.99,0.003213444982886834
1723.5,0.0032699918086337137
1724.02,0.003266703266894809
1724.52,0.0032082463010651998
1725.03,0.003098803673713096
1725.54,0.0029499042996791857
1726.04,0.002785549141225982
1726.55,0.002624909521566127
1727.07,0.00248721480568066
1727.57,0.002392346740085068
1728.07,0.0023526665924027824
1728.59,0.0023773915409401277
1729.09,0.002471783771915066
1729.6,0.0026576083252323615
1730.11,0.0029521430243342997
1730.62,0.0032620316054942523
1731.12,0.0035402994476578103
1731.63,0.0037436360534370636
1732.15,0.0037567772384072074
1732.65,0.003623637023981485
1733.16,0.003426064672154771
1733.67,0.003204398846722722
1734.17,0.003016788540068885
1734.68,0.0029516296191363913
1735.19,0.002941266338332961
1735.69,0.0029649771284590357
1736.2,0.0030079589790629096
1736.71,0.003030263904551167
1737.21,0.0030257090990391507
1737.72,0.003024233874514939
1738.24,0.0030320679877803487
1738.74,0.0030585542565321347
1739.24,0.003131362073448319
1739.75,0.00322228100621518
1740.26,0.003313885541451843
1740.77,0.0033957545235215984
1741.28,0.0034375542627636266
1741.79,0.0034236863357887176
1742.29,0.0034143603838376526
1742.8,0.003432235233125393
1743.32,0.003499953007837815
1743.82,0.003699571330516057
1744.33,0.0039683243433374996
1744.84,0.004237923462703079
1745.34,0.004469652024189837
1745.85,0.004601064945914336
1746.37,0.00455382916161806
1746.87,0.00443273930594779
1747.38,0.00427870765495965
1747.89,0.004128517275435219
1748.39,0.004056615427637587
1748.9,0.004069394285702603
1749.4,0.00413677860575772
1749.91,0.004252472593066671
1750.41,0.004410627319374637
1750.92,0.0046204220589553474
1751.43,0.00482444217500054
1751.94,0.004984145366521829
1752.45,0.005070865530874514
1752.97,0.004994336713824094
1753.46,0.004743154588979493
1753.97,0.004473618280686949
1754.49,0.004250064428615628
1754.99,0.004145417504891495
1755.5,0.004375117738893954
1756.01,0.004762490536498231
1756.51,0.005163422653547882
1757.02,0.005492064660751854
1757.54,0.0055834256505684346
1758.04,0.0052825606942722625
1758.55,0.004863290948606255
1759.05,0.004423681244354272
1759.56,0.004056565670028774
1760.07,0.004020688501550892
1760.58,0.004229270460517301
1761.09,0.0045162378628393505
1761.59,0.004810980894235619
1762.1,0.0050024487611886855
1762.62,0.004905500122947053
1763.12,0.00471468740208446
1763.63,0.004507020729617705
1764.14,0.0043393101965841655
1764.63,0.004368589333897433
1765.14,0.004599468417330623
1765.66,0.004870226594164275
1766.16,0.005122330567756747
1766.67,0.005283612137315115
1767.18,0.005196653300066842
1767.68,0.004973575985606602
1768.19,0.004683972781834954
1768.7,0.004372673636314765
1769.21,0.0041125111212290165
1769.72,0.0039609366279691974
1770.22,0.003879884059149594
1770.73,0.0038719370139470503
1771.24,0.003936270116996325
1771.75,0.004082306909995332
1772.27,0.004283569996020608
1772.76,0.004510388659949197
1773.27,0.004739978553941485
1773.79,0.004937244483629306
1774.29,0.005057049873917949
1774.8,0.005153048478041787
1775.32,0.005244209630028052
1775.81,0.0053462993437524645
1776.32,0.005502442639919374
1776.84,0.005705797276152868
1777.34,0.005920644583974
1777.85,0.006131028246514385
1778.36,0.0063219100239069485
1778.85,0.0064875665637413255
1779.36,0.006591456721656271
1779.87,0.006609571187006179
1780.38,0.006527065118063217
1780.89,0.006275217024758763
1781.39,0.005853707390770654
1781.91,0.005424398740714916
1782.41,0.005061679190949721
1782.92,0.004845726145167383
1783.44,0.004991649032010031
1783.93,0.005344982560016881
1784.44,0.00577160616935127
1784.96,0.0061913835924556765
1785.46,0.0064652278684403505
1785.97,0.006452087229533375
1786.49,0.006336248128191553
1786.98,0.006173928617777885
1787.49,0.006018767376586643
1788.01,0.006004138212123828
1788.51,0.006107608220911446
1789.02,0.006262938057420153
1789.52,0.006448630476477508
1790.03,0.006634803357144467
1790.54,0.006779034308405162
1791.05,0.006890753434728911
1791.57,0.006965668491416909
1792.07,0.006999743264959981
1792.57,0.006964206459882983
1793.08,0.006870822804369158
