wavelength,flux
1448.26,0.05342165847907435
1448.76,0.05171212622406428
1449.28,0.05234641821795881
1449.78,0.055461225485585415
1450.29,0.06024101162000027
1450.81,0.06541680592206014
1451.3,0.07000784195915438
1451.81,0.07264149991499935
1452.33,0.07194716179303633
1452.83,0.06923211149187672
1453.34,0.0652611229988517
1453.86,0.06067590901728141
1454.35,0.05670603478091373
1454.86,0.0533763277977715
1455.38,0.05012524562758501
1455.89,0.046817679142743894
1456.39,0.04308743502469398
1456.89,0.03843388340186906
1457.41,0.03406997000854684
1457.91,0.030763252238358206
1458.42,0.02917063961186091
1458.94,0.030752070850104334
1459.43,0.034961294260544874
1459.93,0.03995471842454508
1460.45,0.04464435280858954
1460.95,0.047575283751500774
1461.46,0.046972802644186934
1461.98,0.044401058712722735
1462.47,0.040900053283780415
1462.98,0.037232097854793096
1463.5,0.034808229841631094
1464.0,0.03382635815948004
1464.51,0.03339799575541677
1465.03,0.03317863640237604
1465.53,0.03277758396365028
1466.03,0.03164783582160423
1466.54,0.030046338473996095
1467.06,0.028139658821722757
1467.56,0.025992500264845658
1468.06,0.02363452929937666
1468.58,0.02121542524704927
1469.08,0.019012719986096608
1469.59,0.017217262261099864
1470.11,0.016130621984953714
1470.61,0.016233997256613564
1471.11,0.01690598172449371
1471.63,0.01765187238896996
1472.13,0.01808610950310794
1472.64,0.017312897101694116
1473.16,0.015277235742824424
1473.64,0.013335943080070604
1474.15,0.012174480997957416
1474.67,0.012689154764054038
1475.18,0.016440622386074313
1475.68,0.02178302191075584
1476.19,0.02719943761932089
1476.7,0.031623735400011205
1477.2,0.033267945555192996
1477.71,0.03138337253682005
1478.23,0.027741997882109834
1478.73,0.023227488631800224
1479.23,0.018718500383104953
1479.75,0.01554084441730225
1480.25,0.013552107620084974
1480.76,0.012522717475856175
1481.28,0.012448090292205264
1481.78,0.013408723242663229
1482.28,0.015286956286452885
1482.8,0.017404419496284865
1483.3,0.01929726493087599
1483.81,0.020406264152906656
1484.33,0.019726033230535588
1484.82,0.0178968048137902
1485.33,0.0157426373985517
1485.84,0.013781474718807212
1486.36,0.012881936782531755
1486.86,0.013671306205786047
1487.37,0.015123536217896087
1487.88,0.01672555730833556
1488.37,0.017986408139844843
1488.88,0.017927032375612533
1489.4,0.01695875027299206
1489.9,0.015786282195834597
1490.4,0.014783822606975097
1490.92,0.014580710116345375
1491.42,0.01573382263639978
1491.93,0.01732268412891779
1492.45,0.01883592347806789
1492.95,0.019823836949286414
1493.45,0.019414075326354165
1493.97,0.01785887522408573
1494.47,0.015829386958047687
1494.98,0.013691397141202329
1495.5,0.011934697727265879
1496.0,0.011086860013803016
1496.5,0.010801437517766597
1497.01,0.010907006195557744
1497.53,0.01129510736234182
1498.03,0.011749482854866957
1498.54,0.01221242480797946
1499.05,0.012717622059459597
1499.55,0.013228404612690892
1500.06,0.01373279891731773
1500.58,0.014248918568932586
1501.08,0.01458361877666552
1501.58,0.014605845557275232
1502.1,0.014204550444253105
1502.59,0.013123919374015764
1503.1,0.011455251792491447
1503.62,0.009611049762571818
1504.12,0.007842823036489022
1504.62,0.006462067495166521
1505.14,0.005885209440428322
1505.65,0.005842676622851059
1506.15,0.006130103753413616
1506.66,0.00661056680090249
1507.17,0.0070238384620269255
1507.67,0.0072775652252115505
1508.18,0.007549317868502
1508.7,0.00788823158406065
1509.2,0.008367807402657381
1509.71,0.00915545477347377
1510.22,0.010016623318427674
1510.72,0.010747284204615369
1511.23,0.01120657873530972
1511.75,0.011127615020525365
1512.25,0.010432927993045878
1512.75,0.009518841228127087
1513.27,0.008607698333360222
1513.77,0.007922608225451917
1514.28,0.007789950318746335
1514.8,0.00813684767805588
1515.31,0.008844636382702529
1515.8,0.009851890119326273
1516.31,0.011163375272400015
1516.83,0.012701010965158218
1517.32,0.014042713254645964
1517.83,0.014917433473827322
1518.34,0.015013191704797983
1518.84,0.013710173343434506
1519.35,0.011470872669990887
1519.87,0.00895664608355584
1520.37,0.006600769393242332
1520.88,0.005050217373134993
1521.39,0.004868297851033267
1521.89,0.0054160472954876745
1522.4,0.0063662052272481905
1522.92,0.0074360994453744516
1523.42,0.008065924106653771
1523.92,0.008335487735463092
1524.44,0.008550992671550328
1524.95,0.008827439832337984
1525.45,0.009380623410952225
1525.96,0.010463355549526857
1526.48,0.011618675788853445
1526.97,0.012568505674653133
1527.48,0.013080492591328825
1528.0,0.012662337889256976
1528.5,0.011444636144869756
1529.01,0.009965188412415513
1529.52,0.008524823292609387
1530.02,0.0075207813457617975
1530.53,0.0074629957230812885
1531.05,0.007939884754906337
1531.55,0.008669550661085105
1532.05,0.009455631412018673
1532.56,0.009934914231214969
1533.06,0.010016221796276157
1533.57,0.009942241957951075
1534.09,0.009798527705829946
1534.6,0.009690416946023597
1535.09,0.009801662382250498
1535.6,0.009981449119595623
1536.12,0.010110205704634882
1536.62,0.010116515851926229
1537.13,0.009856906906117504
1537.65,0.009295555735510334
1538.14,0.008633543748039109
1538.65,0.007978702288290547
1539.17,0.007443380086668101
1539.67,0.007200047967380281
1540.18,0.007189205003369493
1540.69,0.00733604833312605
1541.19,0.007600731708504061
1541.7,0.00794517384853034
1542.22,0.008320676029359562
1542.72,0.008650302556204898
1543.23,0.00887911177997027
1543.74,0.008930267219495776
1544.25,0.00862697505763439
1544.75,0.008133745741789628
1545.26,0.007669404304269032
1545.78,0.007372727561623071
1546.26,0.007493088307135577
1546.77,0.008237399529210135
1547.29,0.009173041326374603
1547.79,0.010046990986549955
1548.3,0.01062800608604569
1548.82,0.010471792119525177
1549.31,0.009696939191616332
1549.82,0.008652442504280853
1550.34,0.007528412250236608
1550.84,0.006578674426067503
1551.35,0.006093061196700069
1551.86,0.00588603629315791
1552.36,0.005860176220402423
1552.87,0.0059575862067889705
1553.39,0.006063097617840902
1553.89,0.006145183073945096
1554.4,0.00624073527091858
1554.9,0.006346672679076204
1555.42,0.00645895857988876
1555.92,0.006582363440520741
1556.43,0.006696262670796394
1556.95,0.00678711313470348
1557.44,0.006845922782323424
1557.95,0.0068489230008961285
1558.47,0.006801887205833226
1558.97,0.006755571485904863
1559.48,0.006739893698215847
1560.0,0.006789047213816544
1560.49,0.006954454361424349
1560.99,0.007202066588616172
1561.51,0.0074960249311082725
1562.01,0.007811556657121145
1562.52,0.008121599383335733
1563.03,0.008397847173667686
1563.53,0.008612578067855635
1564.04,0.008741824920757379
1564.55,0.008760510486306036
1565.07,0.008633140404042823
1565.57,0.008381915884388753
1566.07,0.008041199557868283
1566.59,0.007638638061628259
1567.09,0.007194923991721974
1567.6,0.006737214484562559
1568.12,0.006338788657072508
1568.61,0.006052896020153764
1569.12,0.005931117835920926
1569.64,0.006057094563454418
1570.14,0.006398304977794353
1570.65,0.006875964803388654
1571.17,0.007434085074777959
1571.66,0.008034280000536917
1572.17,0.008641609678963758
1572.69,0.009111444786857659
1573.19,0.0093459378346324
1573.7,0.009244062587034583
1574.2,0.008543632640143716
1574.72,0.0073778663078143455
1575.21,0.0061638183083759235
1575.72,0.005145895093000695
1576.24,0.004671361149792981
1576.74,0.005228866139354968
1577.24,0.006293269833139613
1577.76,0.007472981244224549
1578.26,0.008476825228361198
1578.77,0.008722247734152252
1579.29,0.008101790856292701
1579.78,0.007261297562563921
1580.29,0.006504203121069152
1580.81,0.006204641528509893
1581.31,0.007023577804763289
1581.82,0.008413442590006886
1582.34,0.0098504689536026
1582.83,0.010998443609866704
1583.34,0.011272879025638977
1583.85,0.010362318165872655
1584.37,0.008936247905691473
1584.87,0.0073297476162687645
1585.37,0.005871995232951453
1585.89,0.005136686977483302
1586.39,0.004971117537639111
1586.9,0.005110609102897931
1587.42,0.0054360179845669345
1587.92,0.005745702522835076
1588.42,0.005847587169343713
1588.94,0.005936643372001165
1589.44,0.006088124059770184
1589.94,0.00635964634643763
1590.46,0.006932271084264421
1590.95,0.007681405379237188
1591.46,0.008364230390546805
1591.98,0.008842328835351191
1592.48,0.00890438563561759
1592.99,0.008302896744089402
1593.5,0.007393992072003844
1594.01,0.006416876162914098
1594.51,0.005565785822300306
1595.02,0.005196524861119905
1595.54,0.0053361410240724645
1596.04,0.005704805681844788
1596.54,0.006169693007231887
1597.06,0.006577732957808105
1597.56,0.006713242834246169
1598.07,0.006650174716649919
1598.59,0.006441486282873186
1599.09,0.006104708781373384
1599.59,0.005667340918842695
1600.11,0.005165096030115137
1600.61,0.00463876990762511
1601.12,0.004130127271754293
1601.64,0.0036841834926493785
1602.13,0.0033526367361560797
1602.64,0.0031454364674006344
1603.15,0.0030635551193554074
1603.67,0.003110038389981723
1604.17,0.0033117242149945264
1604.67,0.003669456018080755
1605.18,0.004054829773020573
1605.68,0.004388035596591027
1606.19,0.004579452658047731
1606.71,0.00444390218456422
1607.21,0.004087975026385627
1607.71,0.0036910187945562007
1608.23,0.0033582821116912194
1608.73,0.003270234439806672
1609.24,0.00361348289196282
1609.76,0.004097119571013591
1610.26,0.004552417641761068
1610.76,0.004833977899467673
1611.28,0.004615855044438565
1611.78,0.003985612693839299
1612.29,0.0032937831311674525
1612.8,0.002726752246425444
1613.31,0.0025376033087618323
1613.81,0.0030698762432150163
1614.32,0.003989353845795504
1614.84,0.005049920125570695
1615.34,0.006075455556129494
1615.85,0.006767218623272965
1616.36,0.007018558044642073
1616.86,0.007026452653964677
1617.37,0.006866468692977038
1617.89,0.006611858914611012
1618.39,0.0063769491533060855
1618.88,0.006167364500654342
1619.4,0.005987793201363713
1619.9,0.005862581391987811
1620.41,0.005848040158425321
1620.93,0.005962669816091732
1621.43,0.006085700708107689
1621.93,0.006154523547853539
1622.44,0.006084442377004448
1622.95,0.005662682589384166
1623.46,0.005078599234062463
1623.97,0.004583595130168235
1624.48,0.004328251933982487
1624.98,0.004600124049012015
1625.49,0.005655620213433539
1626.01,0.0069254896506806786
1626.51,0.008071461374703484
1627.02,0.008784764104257043
1627.53,0.008429290763184804
1628.03,0.007181917147945705
1628.54,0.0056446366727989335
1629.06,0.004144883624396928
1629.56,0.0031229803919661987
1630.06,0.00313791867115647
1630.58,0.0037281621312066906
1631.08,0.004583182178981577
1631.59,0.005492984856043321
1632.11,0.006104468296751326
1632.61,0.006283346476286538
1633.11,0.0061937828748498845
1633.61,0.005880777515147256
1634.13,0.005368241182145864
1634.63,0.004678948878919362
1635.14,0.0039447895166721935
1635.65,0.0032911082232635978
1636.15,0.0028288993102616763
1636.66,0.0027422720776602914
1637.18,0.0031172428650245738
1637.68,0.0037262262215208013
1638.19,0.004443569949575054
1638.7,0.005144204385465972
1639.2,0.005629180286237041
1639.71,0.0059138607499511385
1640.23,0.006051565714407985
1640.73,0.0060555994175704566
1641.23,0.005941100418040314
1641.75,0.005732833769901032
1642.25,0.0054782467473373725
1642.76,0.005219606675876905
1643.27,0.005003205286365806
1643.79,0.004905539238195068
1644.28,0.004919008657221931
1644.79,0.004993035636891137
1645.31,0.00510058747978174
1645.81,0.005212277805472342
1646.32,0.005294122207555963
1646.84,0.0053345651420985685
1647.33,0.005322871560853489
1647.83,0.005245875493632852
1648.35,0.005070538860771693
1648.85,0.0048132587442590215
1649.36,0.004550610259897691
1649.87,0.004333863834710183
1650.37,0.00421047364442309
1650.88,0.0042289777715377825
1651.4,0.004415701498176156
1651.9,0.00478476769141615
1652.41,0.005348618478690246
1652.91,0.0061795633105570106
1653.43,0.007269475625121363
1653.93,0.008352381143810556
1654.44,0.009268238693888861
1654.96,0.009840740798362002
1655.45,0.009743965062695342
1655.96,0.009169944944681312
1656.48,0.008399515371456412
1656.98,0.0076077341635008445
1657.49,0.007038184925967803
1658.01,0.006920674853996994
1658.5,0.007091337543878685
1659.01,0.007471805193890255
1659.53,0.008013303603043222
1660.03,0.008660510990106682
1660.54,0.009322165391887658
1661.05,0.00989256269416063
1661.55,0.010282909956821093
1662.06,0.010367993537576593
1662.56,0.009995654271063005
1663.08,0.009342052266950437
1663.58,0.008538748438566723
1664.08,0.007691419964247224
1664.6,0.00698462854089863
1665.1,0.00647903133461263
1665.61,0.00605848891274595
1666.13,0.005687032147716597
1666.62,0.005317412801725093
1667.13,0.004849187608923784
1667.65,0.004380796797949196
1668.15,0.004002289894746645
1668.66,0.0037682834587419614
1669.18,0.003765993376992072
1669.67,0.004042151922742249
1670.18,0.004491609515117112
1670.7,0.005051951574071571
1671.2,0.005669277539394822
1671.71,0.006284776546533497
1672.21,0.006837731236192575
1672.73,0.007272736001082078
1673.23,0.007542212040969446
1673.74,0.007564585119554696
1674.26,0.007268551557883177
1674.76,0.006822988752520322
1675.26,0.006337859838185525
1675.78,0.0059151624793514984
1676.28,0.005748817292167257
1676.79,0.005821392794413521
1677.3,0.005984062962096328
1677.79,0.006165352564134544
1678.3,0.006268242824280146
1678.82,0.00615659362212381
1679.32,0.005941645988804025
1679.83,0.00570148206013284
1680.35,0.005486846945095
1680.84,0.005392657455427969
1681.35,0.005450084875526107
1681.86,0.005578136367276049
1682.37,0.005744593402910374
1682.88,0.005908988373436492
1683.38,0.005989092423914968
1683.9,0.006050225430406901
1684.4,0.006156325270546464
1684.91,0.006343441663770947
1685.43,0.006690790169369907
1685.93,0.007240255436407841
1686.43,0.007831247768632438
1686.95,0.008371003014551223
1687.45,0.008771697587941484
1687.96,0.008881854967615102
1688.48,0.00874085620583385
1688.97,0.008446355092533404
1689.48,0.008054709799421297
1690.0,0.007627126774302843
1690.5,0.00723062626884904
1691.01,0.006913322716577764
1691.51,0.006720354178092707
1692.01,0.006699613490608879
1692.52,0.006935215418384212
1693.03,0.007405978627154792
1693.55,0.008004083673838055
1694.05,0.008658704774868289
1694.55,0.009294072424616575
1695.07,0.009821257039103106
1695.57,0.01021355313497782
1696.08,0.010446912456251773
1696.6,0.010492421351007529
1697.1,0.010291399345804272
1697.6,0.009846146066161143
1698.12,0.009289347871414704
1698.62,0.008704399565672037
1699.13,0.008186128496454441
1699.65,0.007890364120871837
1700.14,0.00775876667323279
1700.65,0.007712862102744728
1701.16,0.007711928815514414
1701.67,0.007671194169565316
1702.18,0.0075192446877171346
1702.69,0.007381919428496246
1703.2,0.0073157673574891025
1703.7,0.007378711789046078
1704.21,0.007745339795395732
1704.73,0.008289550999246617
1705.23,0.00877024459733089
1705.73,0.009051374024943288
1706.24,0.00891072413215118
1706.74,0.008068817657797092
1707.25,0.00695810213726008
1707.77,0.00588014996036417
1708.27,0.005051024150094881
1708.77,0.00496439772620157
1709.29,0.005683892931694584
1709.79,0.0067329556107660615
1710.3,0.007940043810942413
1710.81,0.009091458013115495
1711.31,0.009761273477349982
1711.82,0.010142999369178719
1712.33,0.01033754863752789
1712.85,0.01038664425995312
1713.35,0.010389759420276963
1713.86,0.010427224752945056
1714.37,0.010403856703840565
1714.87,0.010311360016308434
1715.38,0.010143499449677048
1715.9,0.009870468298044669
1716.4,0.009522331397686748
1716.9,0.009135678208165077
1717.42,0.008738243446912685
1717.92,0.008344791987912058
1718.43,0.007956483471551984
1718.95,0.007683928927719247
1719.45,0.007588780029364238
1719.95,0.007717074951062145
1720.45,0.008227788981809413
1720.96,0.00904834909911256
1721.47,0.00997743793148938
1721.98,0.010905802905273251
1722.49,0.011702641115127761
1722.99,0.012167185178745515
1723.5,0.012380645263199397
1724.02,0.012367547835995163
1724.52,0.012145632636227461
1725.03,0.01173072786443389
1725.54,0.011166514894245486
1726.04,0.010543872444078142
1726.55,0.009935350881014632
1727.07,0.00941372910123877
1727.57,0.009054265142220269
1728.07,0.008903699723982108
1728.59,0.008996870915353294
1729.09,0.009353690996999653
1729.6,0.010056463655026741
1730.11,0.011170531866301433
1730.62,0.012342613855318516
1731.12,0.013394984103019685
1731.63,0.014163777370545855
1732.15,0.014212950417374946
1732.65,0.013708748989183861
1733.16,0.012960838367849862
1733.67,0.012121849489358703
1734.17,0.011411760319329623
1734.68,0.011164908572226188
1735.19,0.011125347543920536
1735.69,0.011214686918764549
1736.2,0.011376912050620913
1736.71,0.011460934113094592
1737.21,0.011443383053665369
1737.72,0.01143748342782179
1738.24,0.011466794821084019
1738.74,0.011566664579348128
1739.24,0.011841711123124559
1739.75,0.012185237036012042
1740.26,0.012531350093672677
1740.77,0.012840644714197283
1741.28,0.012998423490326995
1741.79,0.012945715653852543
1742.29,0.012910200583197381
1742.8,0.012977541858158035
1743.32,0.013233344486531866
1743.82,0.01398786786963501
1744.33,0.015003764542520812
1744.84,0.01602284210996999
1745.34,0.016898729113835397
1745.85,0.017395337511328424
1746.37,0.017216532940974836
1746.87,0.01675854207031019
1747.38,0.016176033648626235
1747.89,0.015608074401786532
1748.39,0.015336114111865388
1748.9,0.015384304571462473
1749.4,0.015638944855998534
1749.91,0.016076226417243624
1750.41,0.01667403956002862
1750.92,0.017467081826427668
1751.43,0.018238304790202983
1751.94,0.01884200604327311
1752.45,0.019169819563854273
1752.97,0.01888050750938912
1753.46,0.017930955947256275
1753.97,0.016912033629209067
1754.49,0.016066956481624407
1754.99,0.01567140535834125
1755.5,0.01653984470145379
1756.01,0.0180043832678961
1756.51,0.01952021545837136
1757.02,0.020762797113005733
1757.54,0.021108372485480344
1758.04,0.01997112714873616
1758.55,0.0183862394109144
1759.05,0.016724432567034195
1759.56,0.015336685505743118
1760.07,0.01520124989252568
1760.58,0.015990079931325646
1761.09,0.017075315039022057
1761.59,0.01818999522062715
1762.1,0.01891425379960415
1762.62,0.018548041861058337
1763.12,0.01782690743614652
1763.63,0.017042040651848465
1764.14,0.016408244425749754
1764.63,0.01651931638428995
1765.14,0.017392769569132344
1765.66,0.018417097344463146
1766.16,0.019370933550019245
1766.67,0.01998137984346457
1767.18,0.0196530671547934
1767.68,0.01880994834034963
1768.19,0.017715203782228083
1768.7,0.01653835281187599
1769.21,0.015554860764984772
1769.72,0.014982050188910384
1770.22,0.014675961924685356
1770.73,0.014646414856654615
1771.24,0.014890305904022882
1771.75,0.015443314637702389
1772.27,0.01620532216940034
1772.76,0.01706405202432935
1773.27,0.01793337790719315
1773.79,0.01868050895921433
1774.29,0.019134600913628314
1774.8,0.01949868516158356
1775.32,0.01984453489231485
1775.81,0.020231740307129303
1776.32,0.02082360063338124
1776.84,0.021594236722996905
1777.34,0.02240842744021482
1777.85,0.023205849069538285
1778.36,0.023929558827267983
1778.85,0.024557831917122457
1779.36,0.024952425992816326
1779.87,0.025022362571171217
1780.38,0.024711386509848873
1780.89,0.023759239868166828
1781.39,0.022164575274483702
1781.91,0.020540267885941436
1782.41,0.019167906429487073
1782.92,0.01835124335516212
1783.44,0.018905068675728456
1783.93,0.02024449628741986
1784.44,0.021861774035325493
1784.96,0.023453383878076096
1785.46,0.024492329397582085
1785.97,0.024444209779201736
1786.49,0.024007036700513712
1786.98,0.02339361307372182
1787.49,0.022807320361625354
1788.01,0.02275356844459158
1788.51,0.0231473562760339
1789.02,0.023737821452589892
1789.52,0.024443455749411522
1790.03,0.025151083044065367
1790.54,0.025699844644967138
1791.05,0.026125458297908147
1791.57,0.02641166345561496
1792.07,0.02654299579375258
1792.57,0.026410391135793986
1793.08,0.02605844706768326
1793.58,0.025721552319597846
1794.09,0.025510803108502015
1794.61,0.02556232272994642
1795.1,0.026276764546671817
1795.61,0.027235738847948887
1796.13,0.02814620312005204
1796.63,0.02881571500581466
1797.14,0.028865195588318886
1797.66,0.028030046304514732
1798.15,0.02686819772533449
1798.66,0.025581524140156936
1799.17,0.02438003811774494
1799.68,0.02370043853146029
1800.19,0.023468956331923967
1800.69,0.023552573362880816
