wavelength,flux
1448.26,0.09185549729983332
1448.76,0.0889056862682294
1449.28,0.08998530760819172
1449.78,0.09532871963689152
1450.29,0.1035321815490144
1450.81,0.1124140023171356
1451.3,0.12028982165001446
1451.81,0.12480048258518657
1452.33,0.12359291143098516
1452.83,0.11891538389455775
1453.34,0.1120817076433874
1453.86,0.10419464291511774
1454.35,0.09736668290939138
1454.86,0.09163892198609826
1455.38,0.08604728225894463
1455.89,0.08036020127140076
1456.39,0.07394918366801598
1456.89,0.06595515771597203
1457.41,0.05845965142390002
1457.91,0.05277992425612307
1458.42,0.05004188986131492
1458.94,0.052748795760211825
1459.43,0.059962415193282805
1459.93,0.0685192046639036
1460.45,0.07655290035435694
1460.95,0.0815698038369286
1461.46,0.08052794577317239
1461.98,0.07611053975848689
1462.47,0.07010187368671912
1462.98,0.06380809991852979
1463.5,0.059647468349063155
1464.0,0.05795876063179846
1464.51,0.057218601780475845
1465.03,0.056836533824882934
1465.53,0.05614359072580397
1466.03,0.05420278436493842
1466.54,0.05145442115293077
1467.06,0.04818399087979745
1467.56,0.04450274008013458
1468.06,0.04046136624279592
1468.58,0.0363160461251599
1469.08,0.032542149762375724
1469.59,0.029465953237112565
1470.11,0.02760331100908479
1470.61,0.027777369619375665
1471.11,0.0289242272068799
1471.63,0.03019716970177481
1472.13,0.03093688696441019
1472.64,0.0296112304627695
1473.16,0.02612678700092764
1473.64,0.02280463377259189
1474.15,0.020816393460690814
1474.67,0.021694151170447065
1475.18,0.028105037161276505
1475.68,0.037234109942057635
1476.19,0.04648779921125945
1476.7,0.05404413623630922
1477.2,0.056848463818386555
1477.71,0.05362273783539829
1478.23,0.04739614463870211
1478.73,0.03967941646570816
1479.23,0.031973629764912345
1479.75,0.026543110970719274
1480.25,0.02314420060100863
1480.76,0.02138411859334765
1481.28,0.021254565604638318
1481.78,0.022892617804472784
1482.28,0.026096827195929005
1482.8,0.029708680687211778
1483.3,0.03293657977494178
1483.81,0.034826070058849704
1484.33,0.03366187230879804
1484.82,0.0305375454981103
1485.33,0.026859302882677533
1485.84,0.02351103169941777
1486.36,0.021974309342990935
1486.86,0.023318676517992052
1487.37,0.02579326856926274
1487.88,0.028522848790692862
1488.37,0.030670279783790187
1488.88,0.03056618401180175
1489.4,0.028912492406145525
1489.9,0.026911141727898078
1490.4,0.02519995136942774
1490.92,0.024851401905772508
1491.42,0.026814358868002118
1491.93,0.029519476346588663
1492.45,0.03209519574320945
1492.95,0.03377552851091883
1493.45,0.0330744471947192
1493.97,0.030422158253134105
1494.47,0.026962596317287132
1494.98,0.023318812810931285
1495.5,0.020324998047611065
1496.0,0.01887946653013799
1496.5,0.018391828075903307
1497.01,0.018569938037674896
1497.53,0.01922897730353482
1498.03,0.020000789031069183
1498.54,0.020787018738660245
1499.05,0.021645033936808614
1499.55,0.022512449032884522
1500.06,0.02336881175216544
1500.58,0.024244942472543763
1501.08,0.024812346369203216
1501.58,0.024848068324888683
1502.1,0.024163257338331783
1502.59,0.02232317181657119
1503.1,0.01948318774274955
1503.62,0.01634513942960137
1504.12,0.013336879018831491
1504.62,0.010987968209810942
1505.14,0.01000623328197146
1505.65,0.009933085741002622
1506.15,0.010420885477542196
1506.66,0.011236715061518493
1507.17,0.011938208977103865
1507.67,0.012368458687255236
1508.18,0.012829254400576983
1508.7,0.013404079891494855
1509.2,0.01421785877841967
1509.71,0.01555489300196251
1510.22,0.017016614216173082
1510.72,0.0182564383943507
1511.23,0.01903510635146345
1511.75,0.018899430831688716
1512.25,0.0177181633456592
1512.75,0.016164510027869883
1513.27,0.014616057044269309
1513.77,0.01345171235073694
1514.28,0.013225427498798788
1514.8,0.013813263715029998
1515.31,0.01501363920135505
1515.8,0.016722179215754345
1516.31,0.018946759418060292
1516.83,0.021554763566630962
1517.32,0.023829978665494054
1517.83,0.025312391627414384
1518.34,0.02547291593127921
1518.84,0.023260331805078843
1519.35,0.01945970294253677
1519.87,0.01519327557159258
1520.37,0.011196137552112437
1520.88,0.008565463452118484
1521.39,0.008256294568707582
1521.89,0.009184562671151185
1522.4,0.010795037026948048
1522.92,0.012608273954626706
1523.42,0.013675175448565563
1523.92,0.014131173498878059
1524.44,0.014495427702247638
1524.95,0.01496295247640677
1525.45,0.015899482825719072
1525.96,0.017733339626462983
1526.48,0.019689918847646818
1526.97,0.02129808960202596
1527.48,0.022164078891952987
1528.0,0.021453965044003175
1528.5,0.01938943162933899
1529.01,0.01688175212853788
1529.52,0.014440639192590875
1530.02,0.012738952989416123
1530.53,0.012640178583860979
1531.05,0.013446924625681683
1531.55,0.014681668853969636
1532.05,0.01601177723256496
1532.56,0.01682220058960904
1533.06,0.016958717231419063
1533.57,0.016832293312732925
1534.09,0.016587815843066834
1534.6,0.016403667573786158
1535.09,0.016590887737283344
1535.6,0.016894051377985962
1536.12,0.01711079004738452
1536.62,0.01712033108366715
1537.13,0.016679863749429105
1537.65,0.015728865162887812
1538.14,0.014607743439240319
1538.65,0.013498865490436784
1539.17,0.012592319008017732
1539.67,0.012179870236575492
1540.18,0.012160723964163414
1540.69,0.012408295973057515
1541.19,0.01285515816761767
1541.7,0.013436836526715464
1542.22,0.014070949417798994
1542.72,0.01462744452185146
1543.23,0.015013384596928555
1543.74,0.015098909125220827
1544.25,0.014585180047583688
1544.75,0.013750441046847011
1545.26,0.012964626578974481
1545.78,0.012462307826907942
1546.26,0.012665003247076752
1546.77,0.013922179801276711
1547.29,0.01550253362430893
1547.79,0.016978477331631353
1548.3,0.017959220653907815
1548.82,0.01769413133380285
1549.31,0.01638389407271617
1549.82,0.014618218726852348
1550.34,0.012718385464232129
1550.84,0.01111324750300707
1551.35,0.01029228294378298
1551.86,0.009941978039208673
1552.36,0.009897712678937671
1552.87,0.01006163115252394
1553.39,0.010239201788204741
1553.89,0.010377218741376036
1554.4,0.010537949273158816
1554.9,0.010716210764979672
1555.42,0.010905147500461017
1555.92,0.011112861580824165
1556.43,0.01130449409502981
1556.95,0.011457185597863908
1557.44,0.011555816854933627
1557.95,0.011560213182012658
1558.47,0.011480148414026429
1558.97,0.011401336594826698
1559.48,0.011374227974742768
1560.0,0.011456515227442036
1560.49,0.011735001332274871
1560.99,0.012152152244636378
1561.51,0.012647428156405465
1562.01,0.01317907623101646
1562.52,0.013701393937479026
1563.03,0.014166646728684536
1563.53,0.014528097478028044
1564.04,0.014745305762594472
1564.55,0.014776014089050346
1565.07,0.014560373885908326
1565.57,0.014135913799123226
1566.07,0.01356058397496715
1566.59,0.012881001383449867
1567.09,0.01213213017182815
1567.6,0.011359730353224282
1568.12,0.010687358203814359
1568.61,0.010204816613148777
1569.12,0.00999897852543056
1569.64,0.010210809681773991
1570.14,0.010785455713260146
1570.65,0.011590030932977084
1571.17,0.012530128415491316
1571.66,0.013541083647385934
1572.17,0.014563936734602413
1572.69,0.015354961358589771
1573.19,0.015749351578819314
1573.7,0.015576885953773252
1574.2,0.014395900252852825
1574.72,0.01243096325569887
1575.21,0.010384914991462003
1575.72,0.008669467131416734
1576.24,0.007869605379965528
1576.74,0.008808379332036143
1577.24,0.010600928523201875
1577.76,0.012587508438866604
1578.26,0.014277703844116564
1578.77,0.01469036195420245
1579.29,0.013644691847017566
1579.78,0.012228604198670582
1580.29,0.010953072849662909
1580.81,0.010448104180240997
1581.31,0.011826575820693576
1581.82,0.014166216462428598
1582.34,0.016585029837515832
1582.83,0.018517019605487215
1583.34,0.018978177399720922
1583.85,0.01744441764423016
1584.37,0.015042996803057549
1584.87,0.01233811052044176
1585.37,0.009883844448471802
1585.89,0.008645760512246279
1586.39,0.008366713380236179
1586.9,0.008601099926356623
1587.42,0.009148342140737648
1587.92,0.009669091963136641
1588.42,0.009840119890036378
1588.94,0.009989531480121605
1589.44,0.010243985873759116
1589.94,0.01070039604972421
1590.46,0.011663346731536312
1590.95,0.012923206895936028
1591.46,0.014071387354503107
1591.98,0.014875057186953082
1592.48,0.01497882735247939
1592.99,0.013966419910475559
1593.5,0.012437014394488865
1594.01,0.01079301068780889
1594.51,0.009361117156786348
1595.02,0.008739693040899301
1595.54,0.008974126604662718
1596.04,0.009593747154438233
1596.54,0.0103751307053307
1597.06,0.011060844063497437
1597.56,0.01128826464541288
1598.07,0.011181766633554063
1598.59,0.010830431319072157
1599.09,0.010263788357269345
1599.59,0.009528076518726721
1600.11,0.008683341498582658
1600.61,0.007798205166164168
1601.12,0.006942859320199617
1601.64,0.006192971093884964
1602.13,0.005635445413599235
1602.64,0.005286960304377486
1603.15,0.00514913535551161
1603.67,0.005227061498470845
1604.17,0.005565830924518048
1604.67,0.006166824774016206
1605.18,0.006814223885816102
1605.68,0.0073739157483484735
1606.19,0.007695301462698373
1606.71,0.007467244531122297
1607.21,0.006868923007908858
1607.71,0.006201707696166602
1608.23,0.005642431743868994
1608.73,0.0054943058382908635
1609.24,0.006070780614422381
1609.76,0.006883060095508976
1610.26,0.007647686896206865
1610.76,0.008120407626144282
1611.28,0.007753717999180414
1611.78,0.006694810433279343
1612.29,0.005532524452104824
1612.8,0.004579934467220262
1613.31,0.004262090355824128
1613.81,0.005155912075752736
1614.32,0.0066999677780577565
1614.84,0.008480862001247648
1615.34,0.010202822317212002
1615.85,0.01136416372027039
1616.36,0.01178585416988917
1616.86,0.011798737818136071
1617.37,0.011529724957104819
1617.89,0.011101840412486283
1618.39,0.010707076089113367
1618.88,0.010354864973295245
1619.4,0.010053048921048151
1619.9,0.009842528718732238
1620.41,0.00981781359293552
1620.93,0.010009944292169894
1621.43,0.01021618068543231
1621.93,0.010331409546175816
1622.44,0.010213460710487154
1622.95,0.009505204214548025
1623.46,0.008524528397361819
1623.97,0.007693428946095745
1624.48,0.0072646316963926845
1624.98,0.007720729237623884
1625.49,0.009491974715581941
1626.01,0.011622892650328188
1626.51,0.013545776251561796
1627.02,0.014742449992245103
1627.53,0.014145507118103856
1628.03,0.012051916994163398
1628.54,0.00947195978979461
1629.06,0.006955112646186071
1629.56,0.005240221108980112
1630.06,0.005265148872407382
1630.58,0.006255355838173629
1631.08,0.007689766439745927
1631.59,0.009216013415382265
1632.11,0.010241677134313095
1632.61,0.010541522011077501
1633.11,0.010391002557034049
1633.61,0.009865644832162405
1634.13,0.009005579500588367
1634.63,0.007849055151485767
1635.14,0.006617321454809436
1635.65,0.005520646894397208
1636.15,0.004745205270995942
1636.66,0.004599786247325514
1637.18,0.005228621867577551
1637.68,0.0062499392423971435
1638.19,0.007452954562474972
1638.7,0.008627890720997003
1639.2,0.00944108339980086
1639.71,0.00991831560275383
1640.23,0.010149032411848268
1640.73,0.010155575870513066
1641.23,0.009963339525782199
1641.75,0.009613858537112028
1642.25,0.009186726188208464
1642.76,0.008752813485486637
1643.27,0.00838975012422759
1643.79,0.008225800662521161
1644.28,0.008248222392980587
1644.79,0.008372179442721134
1645.31,0.008552342244426555
1645.81,0.008739445399690005
1646.32,0.00887649780598981
1646.84,0.008944128038799754
1647.33,0.008924355469512398
1647.83,0.00879509764079192
1648.35,0.00850096804241961
1648.85,0.008069478603578728
1649.36,0.007629003934822504
1649.87,0.007265499633551995
1650.37,0.007058516760083066
1650.88,0.007089410311190765
1651.4,0.007402298181346194
1651.9,0.00802084783678166
1652.41,0.008965892724930943
1652.91,0.010358632854728269
1653.43,0.012185413803819841
1653.93,0.014000399367656539
1654.44,0.015535320075386872
1654.96,0.016494669641882398
1655.45,0.016332207343596552
1655.96,0.015369829650116774
1656.48,0.01407828258349698
1656.98,0.012751000387762683
1657.49,0.01179622504525619
1658.01,0.011599098508903354
1658.5,0.011884963036018941
1659.01,0.012522439675329212
1659.53,0.01342977422188111
1660.03,0.01451425248584566
1660.54,0.01562291171697199
1661.05,0.016578609436756774
1661.55,0.017232553883561843
1662.06,0.017374912851538447
1662.56,0.01675072672605257
1663.08,0.01565521760720071
1663.58,0.014308883048273447
1664.08,0.01288881031936177
1664.6,0.01170426924443414
1665.1,0.010856905345859756
1665.61,0.010152085481900804
1666.13,0.009529532825157375
1666.62,0.00891008125524266
1667.13,0.008125414805643364
1667.65,0.007340488072394245
1668.15,0.006706191051397077
1668.66,0.006314027979934735
1669.18,0.006310126447937648
1669.67,0.006772781469923979
1670.18,0.007525793085129427
1670.7,0.008464578336331248
1671.2,0.009498827309157468
1671.71,0.01052999727101199
1672.21,0.011456362807518954
1672.73,0.012185092290339655
1673.23,0.012636483814067973
1673.74,0.012673867338523177
1674.26,0.012177790185095374
1674.76,0.011431206363895925
1675.26,0.010618347473570386
1675.78,0.009910095747477813
1676.28,0.009631341131429287
1676.79,0.009752866742278916
1677.3,0.010025332081293501
1677.79,0.010328992414822755
1678.3,0.010501305082823015
1678.82,0.010314197080877715
1679.32,0.00995403993516324
1679.83,0.009551643173213255
1680.35,0.009192019844371188
1680.84,0.00903418428363373
1681.35,0.009130349382322555
1681.86,0.00934482943074629
1682.37,0.0096236488510851
1682.88,0.009899013817671672
1683.38,0.010033172132116241
1683.9,0.010135549497280173
1684.4,0.010313259637041248
1684.91,0.010626691392102362
1685.43,0.011208547393021531
1685.93,0.01212899342253982
1686.43,0.013119004600791675
1686.95,0.014023180740189687
1687.45,0.014694402493685924
1687.96,0.014878915998092
1688.48,0.014642695006026064
1688.97,0.014149331872069284
1689.48,0.013493236571373291
1690.0,0.012776942487445844
1690.5,0.0121127216869131
1691.01,0.011581174423688997
1691.51,0.01125791547501804
1692.01,0.011223174591021779
1692.52,0.011617861117356998
1693.03,0.012406493080495667
1693.55,0.013408453047914078
1694.05,0.014505093878323543
1694.55,0.01556948761617132
1695.07,0.016452660425203474
1695.57,0.017109872223335335
1696.08,0.017500837862951934
1696.6,0.017577119372746638
1697.1,0.01724040882072362
1697.6,0.01649455673297073
1698.12,0.015561841920259152
1698.62,0.014581964401557545
1699.13,0.013713785227425836
1699.65,0.01321835884198664
1700.14,0.012997950778052766
1700.65,0.012921104422254257
1701.16,0.012919599671560433
1701.67,0.012851419414408509
1702.18,0.012596924285603819
1702.69,0.012366929479888475
1703.2,0.012256172229298139
1703.7,0.012361693026690471
1704.21,0.012975989122903932
1704.73,0.013887809566193239
1705.23,0.01469322721529347
1705.73,0.015164316644039957
1706.24,0.01492878061785944
1706.74,0.013518368668691797
1707.25,0.011657579798283906
1707.77,0.009851659285813868
1708.27,0.008462599426400241
1708.77,0.008317529823161678
1709.29,0.009523079138378814
1709.79,0.011280826618285738
1710.3,0.013303377630924746
1710.81,0.015232686788037504
1711.31,0.016355108761232664
1711.82,0.016994857293138047
1712.33,0.017321000135288464
1712.85,0.017403441088180895
1713.35,0.01740883731564622
1713.86,0.0174717984607311
1714.37,0.01743283217269348
1714.87,0.017278031525362645
1715.38,0.016996952056286613
1715.9,0.016539643141393494
1716.4,0.015956466215645955
1716.9,0.015308737406744866
1717.42,0.014642936996791712
1717.92,0.013983791557864281
1718.43,0.013333254896370595
1718.95,0.012876687952449253
1719.45,0.012717404885471864
1719.95,0.012932576672604067
1720.45,0.013788639162482361
1720.96,0.015163999394132075
1721.47,0.01672128723782027
1721.98,0.018277411635413784
1722.49,0.019613153390413154
1722.99,0.020392014424278192
1723.5,0.02075009114235138
1724.02,0.020728472234170934
1724.52,0.02035685336430521
1725.03,0.019661766304048034
1725.54,0.018716403445160384
1726.04,0.017673071836405697
1726.55,0.016653384837791625
1727.07,0.01577933440657329
1727.57,0.015177061239600796
1728.07,0.014924939909701538
1728.59,0.015081398233925417
1729.09,0.015679816525924452
1729.6,0.016858206129072198
1730.11,0.018726135244831965
1730.62,0.020691396243804033
1731.12,0.022456039422795823
1731.63,0.023745353543459823
1732.15,0.023828278663816076
1732.65,0.022983433659577085
1733.16,0.021729970280540647
1733.67,0.020323757150647503
1734.17,0.019133603203104126
1734.68,0.01872011902451324
1735.19,0.018654192613430993
1735.69,0.01880439621015126
1736.2,0.019076834793674214
1736.71,0.019218156942393413
1737.21,0.019189156518744307
1737.72,0.01917970727326843
1738.24,0.019229319286285265
1738.74,0.01939724745658939
1739.24,0.01985896647734762
1739.75,0.020435567682710595
1740.26,0.021016541906794146
1740.77,0.02153580057381078
1741.28,0.02180096894357467
1741.79,0.02171311974444915
1742.29,0.021654098608416043
1742.8,0.021767615656951407
1743.32,0.022197276701367834
1743.82,0.023463507377889756
1744.33,0.025168268460530815
1744.84,0.02687846524559195
1745.34,0.02834853812787265
1745.85,0.02918243697465026
1746.37,0.02888330179868987
1746.87,0.028115736680321742
1747.38,0.027139243611888426
1747.89,0.02618711287704599
1748.39,0.02573155911570189
1748.9,0.025813179207375875
1749.4,0.026241207110143164
1749.91,0.02697575412062908
1750.41,0.027979715840831174
1750.92,0.02931137626970498
1751.43,0.030606512258118588
1751.94,0.03162060422570211
1752.45,0.032171761291882206
1752.97,0.03168725894746786
1753.46,0.03009455727740956
1753.97,0.028385368691690515
1754.49,0.026967887810238445
1754.99,0.02630482647551497
1755.5,0.027763455949340682
1756.01,0.03022282704108253
1756.51,0.03276845963153776
1757.02,0.03485557823926219
1757.54,0.03543697401339227
1758.04,0.033528911062105086
1758.55,0.030869188469250745
1759.05,0.028080119769793337
1759.56,0.025751040560412292
1760.07,0.025524568965297853
1760.58,0.026850089759362972
1761.09,0.028673450794829594
1761.59,0.030546381696457174
1762.1,0.03176382637471254
1762.62,0.03115003573735034
1763.12,0.029940073572331225
1763.63,0.028623009335830812
1764.14,0.027559592884222522
1764.63,0.027747202748804784
1765.14,0.02921548827786787
1765.66,0.030937366845264685
1766.16,0.03254092787766367
1766.67,0.03356777560919003
1767.18,0.0330175830578503
1767.68,0.031602409011775384
1768.19,0.0297643829919699
1768.7,0.027788255089812138
1769.21,0.026136870953013126
1769.72,0.02517545353698221
1770.22,0.02466215382055712
1770.73,0.024613571914786116
1771.24,0.0250245321954122
1771.75,0.025955061001712406
1772.27,0.027236978113006235
1772.76,0.02868151869204634
1773.27,0.03014405790237247
1773.79,0.03140136299507177
1774.29,0.0321661258464909
1774.8,0.03277968464910464
1775.32,0.03336268671166406
1775.81,0.0340151929174364
1776.32,0.035011932154152665
1776.84,0.03630941304147042
1777.34,0.03768020084316466
1777.85,0.03902296948719859
1778.36,0.040241922608355435
1778.85,0.041300427587201295
1779.36,0.04196611710750211
1779.87,0.042085837032714665
1780.38,0.04156488399378171
1780.89,0.03996538148007984
1781.39,0.037284860258603864
1781.91,0.034554286130651285
1782.41,0.03224723640754579
1782.92,0.030874925143453424
1783.44,0.03180840448144328
1783.93,0.03406376306233588
1784.44,0.036786979365265385
1784.96,0.03946734747362987
1785.46,0.04121786256456188
1785.97,0.041139115133273646
1786.49,0.0404056130294404
1786.98,0.03937525745963152
1787.49,0.03839055812761886
1788.01,0.03830225833450933
1788.51,0.03896728737966407
1789.02,0.03996356233522966
1789.52,0.041153822305810994
1790.03,0.04234763411089587
1790.54,0.043274097076365814
1791.05,0.043993312043277874
1791.57,0.044477911798321675
1792.07,0.04470165846704114
1792.57,0.04448091963776797
1793.08,0.043890785691598065
1793.58,0.0433258964865322
1794.09,0.04297350258731395
1794.61,0.04306295876442415
1795.1,0.044269129581472874
1795.61,0.04588756448291202
1796.13,0.04742453926704658
1796.63,0.04855559430238666
1797.14,0.04864202579253805
1797.66,0.04723772293821886
1798.15,0.04528248141452453
1798.66,0.043116737964997646
1799.17,0.04109432354296511
1799.68,0.03995139881041678
1800.19,0.03956377421963638
1800.69,0.03970729026715124
1801.21,0.04031507573690081
1801.71,0.04131092313401635
1802.22,0.04262701196898793
1802.74,0.04397408104478318
1803.24,0.045145172305517574
